Finger Velocity,Scap_X,Scap_Y,Scap_Z,Shoulder horiz abd-adduction,Shoulder flexion-extension,Shoulder internal-external rotation,elbow flexion-extension,forearm pronation-supination,wrist flexion-extension,wrist radial-ulnar deviation
1.03353854838596,-10.6426947136139,-31.0950503040003,10.2550726639919,-22.2390481968849,-36.3649489250352,-10.4922936732046,81.0722134064018,-26.6345728587765,15.3238857710814,-30.4693299883616
1.27279107147404,-10.6759406164947,-31.0654944390209,10.1925401704673,-22.3998609412697,-36.1928596676879,-10.5973518332549,81.1428281520349,-26.1673616228959,15.1526292653069,-30.3816085360733
1.55644723233339,-10.7108320912686,-31.0350693740007,10.125332079071,-22.5656365555078,-36.0037979068963,-10.7031568428747,81.2311046908887,-25.6661270542954,14.9458451506052,-30.2518035671181
1.88045763228897,-10.7472868240836,-31.0039425919547,10.0534293712181,-22.7352292142732,-35.796410642463,-10.8089402833364,81.3381072867939,-25.1301475834666,14.7039296788253,-30.0789235445518
2.24171746706002,-10.7851927847228,-30.9722736333815,9.97684631902033,-22.9073941897567,-35.5693599169295,-10.9139194689944,81.4647870929291,-24.5589095118721,14.428052468453,-29.862795278872
2.63766507717403,-10.8244090990435,-30.9402038212426,9.89562790624541,-23.0808045763826,-35.3213411949043,-11.0173093682199,81.6119625578968,-23.9521216896898,14.1201190413571,-29.6040373460782
3.06597459833594,-10.8647672062773,-30.9078461186655,9.80984661201376,-23.2540698280749,-35.0511020221197,-11.118334695212,81.7803010581777,-23.3097301735469,13.7827112654401,-29.3040063122615
3.5243602321046,-10.9060722799655,-30.8752754888888,9.71959861926203,-23.4257556201435,-34.7574606199505,-11.2162418987632,81.9703022193954,-22.6319326773621,13.4190108416977,-28.9647209428002
4.01046159882565,-10.9481049002482,-30.8425201040469,9.62499954062348,-23.5944045186625,-34.4393240702568,-11.3103107710686,82.1822833919944,-21.9191924652073,13.0327108050442,-28.5887698189234
4.52178207086519,-10.9906229722981,-30.809553717054,9.52617978442382,-23.7585569290579,-34.0957057480887,-11.3998654038399,82.4163677443582,-21.1722511979684,12.6279194540485,-28.1792076072665
5.05566119922958,-11.03336388967,-30.7762894675818,9.42327970983927,-23.9167718055251,-33.7257416688836,-11.4842842333237,82.6724754189383,-20.3921401338879,12.2090604012105,-27.7394448364079
5.60926946343174,-11.0760469405734,-30.7425753382937,9.31644474038685,-24.0676466347475,-33.3287054343972,-11.5630089405695,82.9503181477923,-19.5801889849454,11.7807717057878,-27.2731355739057
6.17961804668118,-11.1183759490293,-30.7081914130056,9.20582061677003,-24.2098362560749,-32.9040214882276,-11.635552003504,83.2493976229345,-18.7380316388998,11.3478064267759,-26.7840669343773
6.76357898088193,-11.1600421327622,-30.6728490178523,9.09154897238198,-24.3420701368966,-32.4512764272403,-11.7015027248848,83.569007759575,-17.8676078810871,10.9149364848676,-26.2760539064515
7.3579125421835,-11.2007271471342,-30.636191754083,8.97376340748947,-24.4631677804814,-31.9702281595524,-11.7605315809958,83.9082408066648,-16.9711602196303,10.4868614838639,-25.7528425820838
7.95929967430968,-11.2401062704765,-30.5977983616432,8.85258622250154,-24.5720520048835,-31.4608127527315,-11.81239275612,84.2659971042514,-16.0512249611314,10.0681241034767,-25.2180245143489
8.56437774881677,-11.2778516723305,-30.5571872906263,8.72812594849351,-24.6677599002104,-30.9231488757551,-11.8569247610169,84.6409982038248,-15.1106168100812,9.66303375358166,-24.6749645776036
9.16977829703852,-11.3136356950365,-30.5138228054272,8.60047578637398,-24.7494513502404,-30.3575398017546,-11.894049090952,85.0318030580961,-14.1524064651618,9.27560022880449,-24.1267442553829
9.77216555842329,-11.3471340732046,-30.467122404127,8.46971303641942,-24.8164150890504,-29.7644730017528,-11.9237669591791,85.4368270167729,-13.1798909488043,8.90947899005763,-23.5761216410957
10.3682748364541,-11.3780290160749,-30.4164653022168,8.33589956716556,-24.8680723423517,-29.1446174188579,-11.9461542303713,85.8543633914992,-12.1965567273258,8.56792938059797,-23.0255085979868
10.9549497665508,-11.4060120848393,-30.3612017050267,8.19908333502912,-24.9039781632124,-28.4988185634951,-11.9613547551263,86.2826073455428,-11.2060360489882,8.25378659156022,-22.4769645755015
11.5291776976899,-11.4307868099094,-30.3006625794474,8.05930092221963,-24.9238206069192,-27.8280916077896,-11.9695723572759,86.719681812774,-10.2120573256442,7.96944758251635,-21.9322056351739
12.0881224807927,-11.4520710099617,-30.2341696361434,7.91658101028572,-24.9274179048646,-27.1336126770349,-11.9710617478414,87.1636650652265,-9.21839077570865,7.71687048422273,-21.3926263995895
12.6291540475114,-11.4695987933707,-30.1610452487563,7.77094865102006,-24.9147138025977,-26.4167085397797,-11.9661186403733,87.6126194472979,-8.22879088921246,7.49758630736167,-20.8593319868977
13.1498742553854,-11.4831222426174,-30.080622061833,7.62243013957919,-24.8857712307865,-25.6788448924745,-11.9550693331699,88.0646206957595,-7.24693753029903,7.31272110688165,-20.3331766019065
13.648138570201,-11.4924128034219,-29.9922520682541,7.47105824448003,-24.8407644842877,-24.9216134272769,-11.9382600125963,88.5177871838002,-6.27637763213979,7.16302617722995,-19.814805367501
14.1220732534924,-11.4972624212237,-29.8953149669468,7.31687751363805,-24.779970095419,-24.1467178664373,-11.9160460197844,88.9703083774948,-5.32046945157754,7.0489134618788,-19.3046962021254
14.5700878215547,-11.4974844845955,-29.7892256434814,7.1599493595155,-24.7037566023609,-23.3559591439711,-11.8887813087955,89.4204717823853,-4.38233123719113,6.97049322371086,-18.8031990366468
14.990882640884,-11.4929146441893,-29.6734406513561,7.00035663092686,-24.6125734296831,-22.5512199138923,-11.8568083090491,89.866687685878,-3.46479594174974,6.92761117315815,-18.3105703256118
15.3834516222774,-11.4834115750401,-29.5474636105536,6.83820740282717,-24.5069391108365,-21.7344485642161,-11.8204483917965,90.3075110611792,-2.57037330851117,6.91988266106467,-17.8270015330792
15.7470800705977,-11.4688577404586,-29.410849481042,6.6736377556655,-24.3874290879282,-20.9076429189515,-11.7799931308151,90.7416600831676,-1.7012203157416,6.94672213171598,-17.352640972268
16.0813378382391,-11.4491602000676,-29.2632077097098,6.50681336911493,-24.2546633206331,-20.0728338176178,-11.7356965400899,91.1680308107737,-0.859120606426506,7.00736669528223,-16.8876089961735
16.3860680165737,-11.4242514853419,-29.1042042864448,6.3379298171184,-24.1092939254407,-19.2320687732056,-11.6877684647329,91.5857077103748,-0.0454731843254393,7.10089333282697,-16.4320070395023
16.6613714802437,-11.3940905440825,-28.9335627763085,6.1672115170692,-23.9519930537407,-18.3873959236869,-11.6363692928406,91.9939698282282,0.738709660953013,7.22622983908681,-15.9859213832135
16.9075876733494,-11.3586637298136,-28.751064419802,5.99490934982681,-23.7834412101709,-17.5408485059837,-11.581606140034,92.3922925660859,1.49279552081833,7.38216011031337,-15.5494227547584
17.1252720937265,-11.317985783237,-28.5565474130803,5.82129702536048,-23.6043162173826,-16.6944300888315,-11.5235306314157,92.7803451690989,2.21651669434578,7.56732478378759,-15.1225630051007
17.3151709909767,-11.2721007235565,-28.3499054949965,5.64666632140329,-23.4152830497008,-15.8501007958298,-11.4621383678813,93.1579841882429,2.9099474536783,7.78021852813629,-14.7053701315025
17.4781938449962,-11.2210825424383,-28.1310859767549,5.47132137300341,-23.2169847773275,-15.0097647281248,-11.3973701152606,93.5252433152757,3.57347470583911,8.01918546428398,-14.2978428562038
17.6153842335978,-11.1650355769808,-27.900087350833,5.29557224206126,-23.0100348706039,-14.1752587565625,-11.3291146946799,93.8823200925893,4.20776315770567,8.28241426501035,-13.8999458435531
17.7278897293774,-11.1040944331315,-27.6569566085119,5.11972804590116,-22.795011098781,-13.3483427976552,-11.2572134834521,94.2295600657658,4.81371621040371,8.5679344528186,-13.5116064596218
17.8169314859443,-11.0384233384147,-27.4017863829412,4.94408996461505,-22.5724512174258,-12.5306916209149,-11.1814663649109,94.5674389738661,5.39243389718124,8.87361530938816,-13.1327137603951
17.8837741805566,-10.9682148221562,-27.1347120218503,4.76894446778404,-22.3428505786473,-11.7238881639893,-11.1016389007178,94.8965435681269,5.94516922961272,9.19716862748735,-12.7631201457148
17.929696972503,-10.8936876518876,-26.8559086831498,4.59455709450364,-22.1066617254474,-10.9294182663541,-11.0174704463571,95.2175516223575,6.47328432094009,9.53615628318885,-12.4026458487777
17.9559661127851,-10.8150839949743,-26.5655885360859,4.42116708407518,-21.8642959508226,-10.1486666825226,-10.9286828940552,95.5312116558016,6.97820760494607,9.88800330708062,-12.0510861649945
17.9638097996066,-10.7326658216916,-26.2639981378051,4.24898309104854,-21.6161267190789,-9.38291420763492,-10.8349897091505,95.8383228381678,7.46139336573608,10.2500168096582,-11.7082210815716
17.9543958152789,-10.6467106150837,-25.9514160404772,4.07818013441659,-21.3624947665065,-8.63333574097848,-10.7361049240119,96.1397154921649,7.92428464439568,10.6194107731328,-11.373826765435
17.928812403656,-10.5575064987738,-25.6281506704136,3.90889783642319,-21.1037146252091,-7.90099912133185,-10.6317517629313,96.436232554575,8.36828039750773,10.9933363633356,-11.0476882070831
17.8880527544354,-10.4653469317675,-25.2945385105883,3.74123991286619,-20.8400822535704,-7.18686458415706,-10.5216705898331,96.7287123035287,8.79470755873812,11.3689170590397,-10.7296122031672
17.8330033541109,-10.3705251448323,-24.9509426122465,3.57527479556822,-20.5718834186913,-6.49178470637188,-10.4056259024935,97.017972605385,9.20479841513642,11.7432875726953,-10.4194397944815
17.7644363467712,-10.2733285035053,-24.5977514580072,3.41103720879548,-20.299402465561,-5.81650471682742,-10.2834121451021,97.3047968756538,9.59967347264624,12.113635276415,-10.1170572663446
17.6830059260725,-10.174032980019,-24.2353781938587,3.24853048964232,-20.0229311191603,-5.1616630633802,-10.1548581693427,97.5899218807128,9.98032976363362,12.4772426660501,-9.82240487838744
17.5892486581206,-10.0728979072506,-23.8642602362839,3.08772943528332,-19.7427769857684,-4.5277921447284,-10.0198302344831,97.8740274290023,10.3476343545516,12.8315292992261,-9.53548263208741
17.4835875195378,-9.97016117884046,-23.4848592421976,2.92858347013558,-19.459271437717,-3.91531913630059,-9.87823349907434,98.1577279145139,10.7023226557493,13.1740916337914,-9.25635260267
17.3663393313443,-9.86603505154222,-23.0976614071944,2.77101994660168,-19.1727765805416,-3.32456686024194,-9.73001202686282,98.4415655887672,11.0450010192877,13.5027392769227,-8.9851376304549
17.2377251824245,-9.76070269375647,-22.7031780369531,2.61494742053565,-18.8836910195913,-2.75575466783977,-9.57514741044356,98.7260053611279,11.3761530200787,13.8155263356186,-8.72201644409457
17.0978833700769,-9.65431560382582,-22.301946318334,2.46025877404317,-18.5924541722482,-2.20899932271468,-9.4136562033222,99.0114308743496,11.6961487359757,14.1107768227899,-8.46721553725509
16.9468843417335,-9.54699199391957,-21.8945301971982,2.30683408993046,-18.299548915249,-1.68431590195526,-9.24558643409671,99.2981415828158,12.0052562766296,14.3871033792166,-8.22099832201297
16.7847471019805,-9.43881620474207,-21.4815212470493,2.15454321137913,-18.0055024136803,-1.18161877196521,-9.07101354253,99.5863505780681,12.3036547767796,14.6434188725416,-7.98365223256358
16.6114565514081,-9.32983918691242,-21.0635393885401,2.00324794762373,-17.7108850487627,-0.700722738325896,-8.89003611280921,99.8761829559198,12.5914480841509,14.8789407041819,-7.75547455049167
16.4269812459852,-9.22008005766996,-20.6412332995993,1.85280391380937,-17.4163074458929,-0.241344501444886,-8.70277177600489,100.167674592829,12.8686784413239,15.0931878960043,-7.5367577628576
16.2312911038288,-9.10952871461952,-20.2152803439768,1.70306202281439,-17.1224156983998,0.196895436878061,-8.5093536166935,100.460771283054,13.1353395776044,15.2859712560209,-7.32777524122464
16.0243746359172,-8.99814945873658,-19.7863858454926,1.55386967975891,-16.8298849748134,0.614470276979767,-8.30992736380929,100.755328267791,13.3913887752788,15.4573771425195,-7.12876794575998
15.8062553336702,-8.88588554564716,-19.3552815483645,1.40507176599395,-16.5394117752321,1.01194371763552,-8.10464958611556,101.051110252402,13.6367576382834,15.6077455454562,-6.93993272825559
15.5770069047181,-8.77266454886757,-18.922723132546,1.25651153559238,-16.2517051569316,1.38996596159338,-7.893687051851,101.347792053856,13.871361453757,15.7376433614947,-6.76141265304528
15.3367671044215,-8.65840438559877,-18.4894866965979,1.1080315771676,-15.9674772757279,1.7492688880084,-7.67721735136779,101.644960046898,14.0951071781096,15.8478338469875,-6.59328959297541
15.0857499613801,-8.54301983228573,-18.0563641724674,0.959475008342059,-15.6874335829681,2.09066038721378,-7.45543082536056,101.942114582938,14.3079001807514,15.9392432972876,-6.43557919967963
14.8242562378178,-8.42642935124937,-17.6241576848009,0.810687061549939,-15.4122629729835,2.41501787292666,-7.22853379452641,102.238673538421,14.5096499291275,16.0129260236211,-6.28822820673158
14.5526819989042,-8.3085620607425,-17.1936729064673,0.661517185167212,-15.1426280944021,2.72328098392906,-6.99675304954535,102.533977107181,14.7002747920502,16.0700286825179,-6.15111391617756
14.2715251883361,-8.1893646949142,-16.7657114988994,0.511821725696879,-14.8791559442605,3.01644347651567,-6.76034152266958,102.827293884384,14.8797060801934,16.1117549805332,-6.02404564279904
13.9813901213368,-8.06880839952556,-16.3410627690772,0.361467179229766,-14.6224287991115,3.29554431195195,-6.51958500209395,103.117828207748,15.0478913641987,16.139331755173,-5.90676782869386
13.682989811944,-7.9468951869012,-15.9204947211626,0.210333907490012,-14.3729755346793,3.56165796630776,-6.2748096499445,103.404728645491,15.2047970578741,16.1539774024435,-5.798964488741
13.3771460510251,-7.82366383728653,-15.5047447200526,0.0583201129935521,-14.1312634408774,3.81588402498145,-6.02638995129226,103.68709746945,15.3504102515405,16.1568735301675,-5.70026462535708
13.0647871474167,-7.6991949988972,-15.0945100115177,-0.0946542200037075,-13.8976907196602,4.05933616473579,-5.77475659125742,103.964000931986,15.484739819103,16.1491405496378,-5.61024827457639
12.7469432399023,-7.57361522275228,-14.6904383583452,-0.24864375225586,-13.6725799237913,4.29313067340935,-5.52040367845413,104.23448016907,15.6078168790949,16.1318177173266,-5.5284529018319
12.4247390857787,-7.44709968615116,-14.2931190519924,-0.403674884989673,-13.4561726286482,4.51837470953615,-5.26389473698128,104.497562568314,15.7196947478525,16.1058479455769,-5.45437992769507
12.0993842361885,-7.31987341454734,-13.9030745443443,-0.559743732732919,-13.2486256132519,4.73615454864085,-5.00586696981075,104.75227346295,15.8204485670073,16.0720675172431,-5.38750122070891
11.7721605232118,-7.1922108916452,-13.5207529198674,-0.716815072078041,-13.050008767257,4.94752408616164,-4.74703342129551,104.997648037471,15.9101748005779,16.0312006396928,-5.32726545597238
11.4444068131736,-7.06443402744515,-13.1465214033698,-0.874822273080445,-12.8603048618872,5.15349386535407,-4.48818280260764,105.232743350787,15.9889907708961,15.9838585567233,-5.27310430783684
11.117501029173,-6.93690851521464,-12.7806610793178,-1.03366815809667,-12.6794112502352,5.35502088008863,-4.23017686817947,105.456650387675,16.0570343465113,15.9305427381295,-5.22443850565026
10.7928395178429,-6.81003864841925,-12.4233629870072,-1.1932266962659,-12.5071435056263,5.55299937772181,-3.97394533221116,105.668506033308,16.1144638267031,15.8716515214052,-5.18068381357325
10.4718139346323,-6.6842606988547,-12.0747257472827,-1.35334542011222,-12.3432409577925,5.74825286148611,-3.72047839624406,105.867504833866,16.1614579990556,15.8074894948656,-5.14125699800762
10.1557859509753,-6.56003499244739,-11.7347548610208,-1.51384843430624,-12.1873740333978,5.94152746345818,-3.47081703491933,106.052910370908,16.198216287154,15.7382788754233,-5.10558182975496
9.84606024559052,-6.43783686794707,-11.4033637855649,-1.6745398710926,-12.0391532458447,6.13348682162436,-3.22604126414369,106.224066051372,16.2249588659566,15.6641721365074,-5.07309514042722
9.54385642691875,-6.31814676488295,-11.0803768348781,-1.83520763338514,-11.8981396120045,6.32470854075698,-2.98725668954598,106.380405106234,16.2419266113857,15.5852651751903,-5.04325291844522
9.25028073480579,-6.20143975066334,-10.7655338655237,-1.99562725975699,-11.7638562072407,6.51568224700852,-2.75557969281924,106.521459596418,16.2493807645488,15.5016103717581,-5.01553639578185
8.96629857048846,-6.08817484675253,-10.4584966214522,-2.15556575260153,-11.635800516716,6.70680917381096,-2.53212164711346,106.646868234913,16.2476022182354,15.4132289929125,-4.98945805118434
8.69270908074667,-5.97878453733584,-10.1588565396594,-2.31478523787276,-11.5134572117687,6.89840316095877,-2.31797255152757,106.756382841202,16.2368903652841,15.320122515927,-4.9645674470719
8.43012314438051,-5.8736648392059,-9.86614377933466,-2.47304637186285,-11.3963109745012,7.09069291869586,-2.11418444051578,106.849873247298,16.2175614804052,15.2222825867033,-4.94045682811481
8.17894614355638,-5.77316628665379,-9.57983722530208,-2.63011146889099,-11.2838590015949,7.28382539891641,-1.92175486914073,106.92733047881,16.1899466342887,15.1196994510675,-4.91676643204366
7.93936681842079,-5.67758614619725,-9.29937522053837,-2.7857473810476,-11.1756228349061,7.47787011658817,-1.74161071782644,106.988868046527,16.1543891569996,15.0123688064188,-4.89318948335515
7.71135328052157,-5.58716212235793,-9.02416679269931,-2.9397282061459,-11.0711591961758,7.67282426973827,-1.57459251895833,107.034721208645,16.1112416754715,14.9002971053928,-4.86947684565797
7.49465689711354,-5.50206774557312,-8.75360314949538,-3.0918379254664,-10.970069549813,7.86861851090399,-1.42143949470823,107.065244102018,16.060862750681,14.7835054019721,-4.84544129396705
7.2888242763608,-5.42240955066389,-8.48706922228328,-3.24187307584241,-10.8720081772222,8.0651232221749,-1.28277551161651,107.080904690313,16.003613142442,14.6620318675598,-4.82096134126455
7.09321702948129,-5.34822606856171,-8.22395503474793,-3.38964554279433,-10.7766886109415,8.26215513891717,-1.15909619231635,107.082277534647,15.9398517438621,14.5359331325082,-4.79598452647921
6.90703842583279,-5.27948857423854,-7.96366666895365,-3.53498552888878,-10.6838883407066,8.45948415924964,-1.05075746388306,107.070034455097,15.8699312555086,14.4052846410823,-4.770530048464
6.72936556422999,-5.21610346323448,-7.70563660372387,-3.67774471324479,-10.5934517635093,8.65684017563709,-0.957965854752156,107.044933215649,15.7941937022446,14.2701802457253,-4.74469060971704
6.55918532455996,-5.15791606590322,-7.44933321766202,-3.81779958161082,-10.505291404958,8.85391977658084,-0.880770872333275,107.007804426771,15.7129659216458,14.130731293377,-4.71863331685488
6.39543218293078,-5.10471565209346,-7.19426928118856,-3.95505487382072,-10.4193874870723,9.0503926888347,-0.819059797603855,106.959536914795,15.6265551658248,13.9870654554022,-4.69259948060101
6.23702598582945,-5.05624133623565,-6.9400093015604,-4.08944706435545,-10.3357859523662,9.2459078587978,-0.772555216902604,106.901061854212,15.5352449605944,13.839325523838,-4.66690316930319
6.08290796710695,-5.01218857453478,-6.68617562253253,-4.22094775884597,-10.2545950743803,9.44009910169601,-0.740815570625574,106.833336000414,15.4392913682809,13.6876683518991,-4.64192839272795
5.93207361341272,-4.97221595702801,-6.43245321000075,-4.34956685262872,-10.1759808001328,9.63259027700233,-0.723238930602064,106.757324402601,15.3389198175147,13.532264063873,-4.61812482283233
5.78360138166308,-4.93595203078672,-6.17859307667484,-4.47535525850828,-10.1001609931598,9.82299997791687,-0.719070123273678,106.673983020228,15.2343226990319,13.373295603018,-4.59600199131844
