Finger Velocity,Scap_X,Scap_Y,Scap_Z,Shoulder horiz abd-adduction,Shoulder flexion-extension,Shoulder internal-external rotation,elbow flexion-extension,forearm pronation-supination,wrist flexion-extension,wrist radial-ulnar deviation
0.825524196146844,-8.38290023543904,-28.2792121586401,5.67531641174693,-25.4365403588735,-34.4783422912362,-9.77365098277722,77.9326116836793,-26.8093327390669,10.3310402324995,-30.8937276651053
1.00171770340048,-8.42416160266762,-28.2503123983752,5.65048428423152,-25.5331655691117,-34.2656635371835,-9.79390158043858,77.9251790098645,-26.5299028687777,10.2440830240317,-30.7442637771919
1.19273467862032,-8.46258753098676,-28.2224228626417,5.62430989405548,-25.6334556551233,-34.0553416241908,-9.81002388453994,77.9252060615509,-26.2561470133645,10.121088617944,-30.5553845713148
1.39751127332297,-8.49814149027197,-28.1953975019667,5.59682162811439,-25.7371334174974,-33.8477332431007,-9.82148833723363,77.932021628921,-25.9889980935485,9.9596013314327,-30.3264631038908
1.61492004805796,-8.53083195931705,-28.1690773711067,5.56805471420358,-25.8438783386678,-33.643076007338,-9.82778340914256,77.9447791207935,-25.7292335405693,9.75751973046528,-30.0573905520406
1.84372608750619,-8.56070860821059,-28.1432960402849,5.53805133459793,-25.9533263897307,-33.4414888934736,-9.8284204380766,77.9624681834841,-25.4774643929003,9.51310680001797,-29.7485384636771
2.08256818628287,-8.58785753232486,-28.1178849899656,5.50686080273982,-26.0650708561018,-33.2429749645565,-9.82293790991517,77.9839293049487,-25.2341269783703,9.22499256779239,-29.4007062134139
2.32995424220134,-8.61239574398109,-28.0926787980754,5.47453978150853,-26.1786642578242,-33.0474261923206,-9.81090522070319,78.0078710461763,-24.9994772508753,8.89217152970316,-29.0150576489637
2.5842655139264,-8.63446514244628,-28.0675199487115,5.44115251103351,-26.2936213747587,-32.8546301770547,-9.79192599713397,78.03288950963,-24.7735878066821,8.51399723853063,-28.5930513016576
2.84376691826079,-8.65422618273931,-28.0422631221118,5.40677100779762,-26.4094233237798,-32.6642785532495,-9.7656410825588,78.0574896356994,-24.5563475736346,8.09017621615243,-28.1363686203409
3.10662173904019,-8.67185145141893,-28.0167788620629,5.37147519694356,-26.5255225830313,-32.4759768621638,-9.73173132221834,78.0801079093094,-24.347464152741,7.6207629821344,-27.6468444885017
3.37090970661026,-8.68751933685297,-27.9909565546141,5.33535294563229,-26.6413488208336,-32.2892556646022,-9.68992030259613,78.099136054098,-24.1464687900292,7.10615749812847,-27.1264038276475
3.63464770040342,-8.70140795618279,-27.9647066883364,5.29849997428274,-26.7563153621128,-32.1035826549561,-9.63997720631172,78.1129452865798,-23.9527239531478,6.54710575933378,-26.5770074245298
3.89581247471388,-8.71368947471488,-27.9379623996834,5.26101963140021,-26.8698261084961,-31.9183755218216,-9.58171992541205,78.119910697706,-23.7654334691735,5.94470369875708,-26.0006093265051
4.15236488143367,-8.72452492849522,-27.9106803357726,5.22302252446107,-26.9812827159993,-31.733015285615,-9.51501852838942,78.1184353285539,-23.5836551418725,5.30040408328581,-25.3991273151844
4.40227510002257,-8.7340596384626,-27.8828408897241,5.18462600377235,-27.0900918267826,-31.5468598339341,-9.43979910539037,78.1069735160187,-23.4063157100423,4.61602568927443,-24.774427139362
4.64354840386197,-8.74241928400855,-27.8544478795533,5.1459534991998,-27.1956721515795,-31.3592573745995,-9.35604793427313,78.0840531075981,-23.2322279420763,3.89376369630625,-24.1283203584816
4.8742510041106,-8.74970668333288,-27.8255277502299,5.10713371167982,-27.2974612090487,-31.1695595378691,-9.26381583118664,78.0482961831975,-23.0601095991875,3.13619987800987,-23.4625748095872
5.09253552327572,-8.75599930707196,-27.7961283805314,5.06829966237054,-27.3949215466028,-30.9771338851769,-9.16322248521615,77.9984379741242,-22.8886039535293,2.34631081045117,-22.7789358965131
5.29666566435781,-8.76134753150617,-27.7663175730571,5.02958760194725,-27.4875462915008,-30.7813756194791,-9.05446053618961,77.9333437289114,-22.7163015222042,1.52747202123299,-22.0791561697166
5.485039659499,-8.76577362006359,-27.7361812990106,4.99113578126005,-27.574863908149,-30.5817183355235,-8.93779914073356,77.8520233343078,-22.5417626684268,0.683455823396335,-21.365030075005
5.65621210548833,-8.76927140771841,-27.7058217609645,4.95308308367672,-27.6564420655752,-30.3776436902551,-8.81358677973635,77.7536435514269,-22.363540716945,-0.181579436259025,-20.6384303497647
5.80891382253418,-8.77180665190493,-27.6753553278528,4.91556752093682,-27.7318905473825,-30.168689909394,-8.68225308264883,77.637537769166,-22.1802052234194,-1.06311079305865,-19.9013423826169
5.94206940723962,-8.77331800504103,-27.6449103869761,4.87872459973696,-27.8008631659952,-29.954459072559,-8.54430947313358,77.5032132098895,-21.9903650209313,-1.95628440558629,-19.1558929552758
6.05481219020535,-8.77371855705258,-27.6146251479701,4.84268557574812,-27.8630586753863,-29.7346231327925,-8.40034846955077,77.3503555472273,-21.7926906395334,-2.8559626570589,-18.4043701587511
6.14649635236716,-8.7728978909275,-27.5846454243185,4.80757562432012,-27.9182207127746,-29.5089286264235,-8.25104149653755,77.1788309147974,-21.5859356643419,-3.75678486357846,-17.6492319055821
6.21670600106238,-8.77072459014143,-27.5551224101915,4.77351197066,-27.9661368386818,-29.2772000224369,-8.09713507945133,76.9886853020715,-21.3689565828517,-4.65324095568692,-16.8931013019101
6.26526105575086,-8.76704913394986,-27.5262104649874,4.74060203386909,-28.0066367827936,-29.0393416573695,-7.939445308906,76.7801413548052,-21.1407306932163,-5.53975661423072,-16.1387481242363
6.29221984298271,-8.7617071151354,-27.4980649155369,4.70894164644973,-28.0395900364586,-28.7953382087464,-7.77885049037911,76.553592625221,-20.9003717100635,-6.41078752316766,-15.3890566897696
6.29787834919365,-8.7545227147898,-27.4708398864591,4.67861341333436,-28.0649029577391,-28.5452536799454,-7.61628194425439,76.3095953509875,-20.6471428069989,-7.26091970303192,-14.6469814421612
6.28276612673646,-8.74531237009022,-27.4446861714964,4.64968527362522,-28.0825155682631,-28.2892289045879,-7.45271299634257,76.0488578803717,-20.3804669629642,-8.08497236957285,-13.9154924990824
6.24763889172414,-8.73388857371269,-27.4197491615472,4.62220932561364,-28.0923982212221,-28.0274776266577,-7.2891462906218,75.7722279011512,-20.099934615288,-8.8780994774626,-13.1975141264933
6.19346789032277,-8.72006374711282,-27.3961668478032,4.59622097152978,-28.0945483083216,-27.7602812630635,-7.12659965497072,75.4806776690988,-19.8053087407004,-9.6358860670258,-12.4958595676789
6.12142614180552,-8.70365413370164,-27.3740679201551,4.57173843199693,-28.088987154291,-27.4879824990431,-6.96609084819501,75.1752874669817,-19.4965275637603,-10.3544357071375,-11.8131658561467
6.03287169099062,-8.68448366088746,-27.3535699812862,4.54876267044296,-28.0757572255715,-27.2109779030722,-6.80862160199542,74.8572275612284,-19.1737051216028,-11.0304456965501,-11.151832181519
5.92932801919417,-8.66238772054017,-27.3347778964692,4.52727775464773,-28.0549197595329,-26.9297097797651,-6.65516143208879,74.5277389658502,-18.8371299024792,-11.6612672239965,-10.5139650699924
5.81246177193031,-8.63721681462733,-27.3177822998201,4.50725166681424,-28.0265529043751,-26.644657506149,-6.50663171893906,74.1881133719831,-18.4872617387566,-12.2449483559852,-9.90133312361392
5.68405796493086,-8.60884000738596,-27.3026582801621,4.48863755567789,-27.990750447264,-26.3563286155082,-6.36389054758924,73.8396726511154,-18.1247270861033,-12.7802584752866,-9.31533338965578
5.54599283103039,-8.57714811994112,-27.2894642721739,4.47137540470301,-27.9476211969465,-26.0652499003587,-6.22771875117847,73.4837483822791,-17.7503127653119,-13.2666935863595,-8.75697066404925
5.40020447477471,-8.54205660008946,-27.2782411791698,4.45539407059597,-27.8972890737849,-25.7719587993283,-6.09880753305269,73.121661879434,-17.3649581825966,-13.7044626891592,-8.22685023604904
5.24866151775705,-8.50350800003548,-27.2690117519516,4.44061362876391,-27.8398939405666,-25.4769953118877,-5.97774796287773,72.7547051991709,-16.9697459832798,-14.0944561525857,-7.72518382077445
5.09332995712729,-8.46147399852559,-27.2617802439857,4.42694794958039,-27.7755931771894,-25.1808946543583,-5.86502256773171,72.3841235904504,-16.5658910467901,-14.4381976490826,-7.2518077617823
4.93613853635595,-8.41595691138656,-27.256532357382,4.41430742202146,-27.7045639585487,-24.88418083566,-5.7609991759241,72.0110998104325,-16.1547277155951,-14.7377817156817,-6.80621205364663
4.77894305575599,-8.36699064586491,-27.2532354875379,4.40260173786351,-27.6270061370766,-24.5873612941529,-5.66592711540848,71.6367406750994,-15.7376951779956,-14.9957993875015,-6.38757833505828
4.62349024219795,-8.31464106862875,-27.251839267478,4.39174264807628,-27.5431455612194,-24.2909226977667,-5.57993581318179,71.2620661395247,-15.3163209936196,-15.215254630898,-5.9948247152847
4.47138205609507,-8.25900577382881,-27.2522764061753,4.38164660214979,-27.4532375852852,-23.9953279684387,-5.50303578258828,70.8880011111446,-14.8922028497483,-15.3994745026403,-5.62665510711615
4.32404162634379,-8.20021325530134,-27.2544638087325,4.37223718086691,-27.3575704589655,-23.7010145485605,-5.43512192056086,70.515370096769,-14.4669887483084,-15.5520160752256,-5.28161065260953
4.18268233436021,-8.13842150500234,-27.2583039607511,4.36344723433538,-27.2564682455861,-23.4083938800555,-5.37597896807558,70.1448946808637,-14.042355926534,-15.6765731795088,-4.95812085815339
4.04828185302811,-8.0738160774214,-27.2636865548102,4.35522064133504,-27.1502929195517,-23.1178520155836,-5.32528892146681,69.7771937373455,-13.6199888916316,-15.7768859083932,-4.65455221276493
3.92156309795429,-8.00660767636675,-27.2704903331491,4.34751361442303,-27.0394453338712,-22.8297512317662,-5.28264013126814,69.412786193531,-13.2015569944438,-15.8566555951149,-4.36925234786429
3.80298397169982,-7.93702933525632,-27.2785851162805,4.3402954882812,-26.9243648145253,-22.5444324753188,-5.24753779595923,69.0520960932583,-12.7886919847055,-15.9194676399029,-4.10058819298129
3.69273740164367,-7.86533327386991,-27.2878339817635,4.33354894672088,-26.8055272132352,-22.2622184483824,-5.21941554676854,68.6954596444481,-12.3829659936401,-15.9687241386916,-3.84697705668949
3.59076246817931,-7.79178752212375,-27.2980955513126,4.32726966693439,-26.6834413242184,-21.9834171251547,-5.19764782080405,68.3431338828008,-11.98587038793,-16.0075877982468,-3.60691006865512
3.49676645235198,-7.71667240317228,-27.3092263390481,4.3214653879258,-26.5586436450981,-21.7083254825849,-5.18156273671469,67.9953065406344,-11.5987959315805,-16.0389381256887,-3.37896790790856
3.41025654559452,-7.64027696307494,-27.3210831095374,4.31615444232093,-26.4316915433293,-21.4372332217596,-5.17045522693311,67.652106683932,-11.2230146703924,-16.0653403728359,-3.16182917379076
3.33057895951848,-7.56289542361512,-27.3335251909745,4.31136382442877,-26.3031549810027,-21.1704262570244,-5.16360024034215,67.3136156790606,-10.8596639107111,-16.0890272100727,-2.95427210581029
3.25696245202194,-7.48482372176785,-27.3464166865007,4.30712689909262,-26.1736070538124,-20.9081897623832,-5.16026589197217,66.9798780828363,-10.5097326004161,-16.1118926113489,-2.75517062282558
3.18856298804046,-7.40635618691986,-27.3596285267046,4.3034808813237,-26.0436137083025,-20.65081059168,-5.15972647702664,66.6509121185027,-10.1740503462937,-16.1354969656743,-2.56348583952452
3.12450641799891,-7.32778239684987,-27.3730403102621,4.30046423140642,-25.9137230924119,-20.3985789280604,-5.16127526426286,66.3267194894946,-9.85327923744566,-16.1610820134637,-2.37825433996952
3.06392661671783,-7.24938424560343,-27.3865418878576,4.29811411122259,-25.784455036734,-20.1517890646553,-5.16423693729951,66.0072943639937,-9.54790860592903,-16.1895938687025,-2.19857454768285
3.00599733657148,-7.17143324974962,-27.4000346563334,4.29646403590639,-25.6562911456367,-19.9107392671941,-5.16797948341955,65.6926314189676,-9.25825284188159,-16.2217121664592,-2.02359252223734
2.94995692095675,-7.09418811303395,-27.4134325444167,4.29554183437727,-25.5296659152619,-19.6757307164249,-5.17192526699737,65.3827328677568,-8.98445237085615,-16.2578832982594,-1.85248842336264
2.89512584757629,-7.01789256269853,-27.4266626867761,4.29536800624609,-25.4049592160269,-19.447065571733,-5.17556098826324,65.0776144244628,-8.72647786982672,-16.2983557633392,-1.68446471806268
2.84091772442322,-6.94277346394789,-27.4396657974734,4.2959545329271,-25.2824903977711,-19.2250442329752,-5.17844622297176,64.7773101878034,-8.48413772291015,-16.3432158353619,-1.51873698712079
2.78684479921081,-6.86903921281197,-27.4523962656436,4.2973041695348,-25.162514202563,-19.0099618987733,-5.18022026148597,64.4818764542927,-8.25708858786549,-16.3924219740708,-1.35452794612087
2.73251926621724,-6.79687840288674,-27.4648220049403,4.29941021425957,-25.0452186025597,-18.8021045272112,-5.18060701083792,64.1913944923926,-8.04484877205521,-16.4458366680549,-1.19106505457321
2.67765169346934,-6.72645875931155,-27.4769240935881,4.30225672551363,-24.9307246120293,-18.6017443113041,-5.17941778171517,63.9059723257474,-7.84681393748981,-16.5032546716344,-1.02758185117125
2.6220477909541,-6.65792633484772,-27.4886962432096,4.30581913458247,-24.8190880482139,-18.4091347983234,-5.17655184366253,63.6257455860986,-7.66227451085121,-16.5644268995651,-0.863322925938519
2.56560454058949,-6.59140496788399,-27.5001441318502,4.31006518307152,-24.7103031370458,-18.2245058079325,-5.17199469175394,63.3508775052493,-7.49043409266583,-16.6290795620271,-0.697552231384348
2.50830644791243,-6.52699600886474,-27.5112846305816,4.31495610146934,-24.604307785195,-18.0480583292076,-5.16581403179055,63.0815581202166,-7.33042814547761,-16.6969284390701,-0.529564259569074
2.45022238168671,-6.46477832746074,-27.5221449445976,4.32044793912129,-24.5009902770752,-17.879959593659,-5.15815356516874,62.8180027664784,-7.18134228816995,-16.7676884828715,-0.358697478678834
2.39150316004847,-6.40480861585911,-27.5327616789664,4.32649295726067,-24.4001971069883,-17.7203385292159,-5.14922473755453,62.5604499306026,-7.04222962351361,-16.8410791761785,-0.184349329905779
2.33237973280114,-6.34712200317618,-27.5431798265861,4.33304100468887,-24.3017416237314,-17.5692817977345,-5.13929669844515,62.3091585247154,-6.91212666370983,-16.9168262529243,-0.0059920254665376
2.27316150753233,-6.29173299193374,-27.5534516640144,4.34004080853518,-24.2054131506494,-17.4268306010655,-5.12868479154993,62.0644046312861,-6.79006757319831,-16.9946604985727,0.176811645260814
2.21423408046402,-6.23863671935545,-27.5636355340558,4.34744112811428,-24.1109862492177,-17.2929784072505,-5.11773795411276,61.8264777501705,-6.67509660291727,-17.0743143968084,0.364393302547195
2.15605537363339,-6.18781053414645,-27.573794494959,4.35519173619491,-24.0182298142541,-17.167669708249,-5.10682544806629,61.5956765653805,-6.56627873758043,-17.155517384169,0.556965536084926
2.09914897027529,-6.13921586530391,-27.5839948236376,4.36324420724329,-23.9269157188364,-17.0507998821788,-5.09632337571943,61.372304240802,-6.46270870500996,-17.2379904265319,0.754610767090773
2.0440933185153,-6.09280034622213,-27.5943043712624,4.37155250492765,-23.8368267670966,-16.9422161920363,-5.08660143810124,61.1566632544659,-6.36351858117144,-17.3214405507843,0.957273062478663
1.99150549928617,-6.04850014696352,-27.6047907818173,4.3800733705804,-23.7477637640924,-16.8417199009296,-5.07801036746358,60.9490497920945,-6.26788424990248,-17.4055558560248,1.16475343657747
1.94201850763297,-6.00624246051618,-27.6155195975564,4.38876652084006,-23.6595515676688,-16.7490694254096,-5.07087041234499,60.7497477448163,-6.17503095028121,-17.4900013986403,1.37670901830313
1.89625156356921,-5.96594808468939,-27.6265522894796,4.39759466739182,-23.5720440362914,-16.6639843990893,-5.06546118809019,60.5590223926545,-6.08423809283533,-17.5744162138758,1.59265626256928
1.8547739081214,-5.92753403968052,-27.637944264036,4.40652337500471,-23.4851278232415,-16.5861504875073,-5.06201313717871,60.3771138979634,-5.99484347115375,-17.6584116245516,1.81197816075057
1.81806382845036,-5.89091616219246,-27.6497429067904,4.41552077576064,-23.3987249952652,-16.5152247761747,-5.06070077352846,60.2042307696536,-5.90624694760024,-17.741570900479,2.03393517943788
1.78646612644469,-5.85601161993651,-27.6619857287958,4.4245571582436,-23.3127944795962,-16.4508415385056,-5.06163781446396,60.0405434795867,-5.81791365378046,-17.823450259501,2.25767945326742
1.76015256054738,-5.82274129455885,-27.6746986825914,4.43360445247751,-23.2273323690822,-16.392618181696,-5.06487423999752,59.8861784149639,-5.72937672186221,-17.9035811390001,2.48227160123618
1.73909049609269,-5.79103198552516,-27.6878947124525,4.44263563588084,-23.1423711392632,-16.3401611757149,-5.07039526911792,59.7412123409683,-5.64023955156459,-17.981473630611,2.70669944830278
1.72302468224024,-5.76081839159308,-27.7015725971671,4.45162409139112,-23.0579778530494,-16.2930717953022,-5.07812220825409,59.6056675343408,-5.55017760883332,-18.0566209773885,2.92989792099581
1.71147558040062,-5.73204483003624,-27.7157161327254,4.46054295317674,-22.9742514482728,-16.2509515400331,-5.08791510190757,59.4795077360429,-5.45893973043238,-18.1285050710712,3.15076943178482
1.70375525880183,-5.70466665711806,-27.7302936874165,4.46936447519455,-22.891319219655,-16.2134071350428,-5.09957709105964,59.3626350614974,-5.36634886754782,-18.1966029205439,3.36820414678042
1.69899917208734,-5.67865135683856,-27.7452581449383,4.47805945295876,-22.8093326185766,-16.1800550506444,-5.11286035605674,59.2548880000618,-5.27230215054752,-18.2603940612159,3.58109962569361
1.69620991777794,-5.65397926860577,-27.7605472358381,4.48659672169309,-22.7284625027937,-16.1505255105654,-5.12747348799327,59.156040629496,-5.1767701154864,-18.3193688415006,3.78837942449745
1.69430785440421,-5.6306439281631,-27.7760842474904,4.49494274782734,-22.6488939768209,-16.1244659833248,-5.14309010149703,59.0658031622878,-5.07979491714467,-18.3730374837354,3.98901035928546
1.69218342141165,-5.60865200063993,-27.791779098506,4.50306132772376,-22.5708209734015,-16.101544166589,-5.15935847740935,58.9838239233776,-4.98148736932255,-18.4209398026196,4.18201824430237
1.68874686910433,-5.58802279170603,-27.8075297613989,4.51091340768622,-22.494440735756,-16.0814504785771,-5.17591200624736,58.9096928288687,-4.88202269874219,-18.4626554923764,4.36650203095131
1.68297243497107,-5.56878733407588,-27.8232240123244,4.51845704061234,-22.4199483661962,-16.063900064951,-5.1923801879506,58.842946392568,-4.78163496955785,-18.4978149467663,4.5416463644716
1.67393535292698,-5.55098706208024,-27.8387414762977,4.52564749396731,-22.3475316066796,-16.0486343182406,-5.20839992705892,58.7830742360116,-4.68061022438699,-18.5261105878322,4.70673260817638
1.66084116792482,-5.53467210474775,-27.8539559230537,4.53243751943658,-22.2773660091855,-16.0354218952266,-5.22362684792235,58.7295270246074,-4.5792784834166,-18.5473085821227,4.86114834931703
1.64304754151002,-5.5198992450624,-27.8687377575579,4.53877778773441,-22.2096106374137,-16.0240592111442,-5.23774634745428,58.6817257041049,-4.47800482983086,-18.5612606201613,5.00439532288858
1.62007909738673,-5.50672960785946,-27.8829566432739,4.54461748475308,-22.1444044165746,-16.0143703925471,-5.25048410546267,58.6390718727997,-4.37717987230427,-18.5679152052309,5.13609561553775
1.59163595839616,-5.49522615032092,-27.8964841954889,4.54990505850031,-22.0818632171693,-16.0062066846328,-5.26161578148341,58.6009590981423,-4.27720990338735,-18.5673277306004,5.25599597011304
1.5575965687291,-5.48545103672083,-27.9091966841461,4.55458909970779,-22.0220777253556,-15.9994453302909,-5.27097563712676,58.5667849703945,-4.17850706354659,-18.5596685648558,5.36397000675414
1.5180152636965,-5.4774629825227,-27.9209776882354,4.55861933253257,-21.9651121209019,-15.9939879599833,-5.27846383199573,58.5359636763008,-4.08147977977078,-18.5452284080119,5.46001820471481
