Finger Velocity,Scap_X,Scap_Y,Scap_Z,Shoulder horiz abd-adduction,Shoulder flexion-extension,Shoulder internal-external rotation,elbow flexion-extension,forearm pronation-supination,wrist flexion-extension,wrist radial-ulnar deviation
1.01892697465732,-8.8613750407165,-27.3498903145917,6.11542515521898,-23.8497200648577,-37.2693049896038,-7.43779521432613,77.6577943171471,-27.6808917082043,8.10791897544072,-24.6932812024702
1.24733225895995,-8.90628271982388,-27.3297791856837,6.10136781419385,-23.8905776328651,-37.140242479257,-7.41314510790759,77.6375688171416,-27.2814724808634,7.59000284199051,-24.2824718406385
1.49195983175584,-8.95092464226832,-27.3096913251891,6.08814931325279,-23.9372532008988,-36.9959650351985,-7.38820962670232,77.6201230419169,-26.8605481076276,6.99399445826321,-23.8077831418151
1.75137695291085,-8.99481197578228,-27.2897479337731,6.07581280484663,-23.9894201838246,-36.8361443132436,-7.36276325103007,77.6054154586531,-26.420756929162,6.32106689891845,-23.2711002831534
2.02400064312647,-9.03745405241465,-27.2700584120732,6.06436973265573,-24.0466255850424,-36.6605595418363,-7.33651669929376,77.59324276632,-25.9650266738786,5.57403846303115,-22.6759482127113
2.30808122835095,-9.07836683571545,-27.2507169797402,6.05379855896448,-24.1082951893267,-36.469099452518,-7.3091195887749,77.5832238355293,-25.4965204296748,4.75731865350347,-22.0274244309609
2.60170461514396,-9.11708111672103,-27.2317997510571,6.04404445013084,-24.1737423503629,-36.2617623589839,-7.28016530580505,77.5747879569844,-25.0185756406269,3.87677839521494,-21.3320470709874
2.90280512795437,-9.15315021735792,-27.213362396186,6.03501991735682,-24.2421801340589,-36.0386544341172,-7.24919795072227,77.5671681508317,-24.534637608704,2.93955355108287,-20.5975265097788
3.20918510280601,-9.18615701529292,-27.1954384898714,6.02660636713048,-24.3127364256521,-35.7999862788397,-7.21572113754773,77.5594000972464,-24.0481891887154,1.95379683120707,-19.8324756023877
3.51853919368396,-9.21572014267927,-27.1780386131031,6.01865648217866,-24.3844714771994,-35.5460679221242,-7.17920836380692,77.5503270241528,-23.5626785308674,0.928397283925228,-19.0460787360807
3.82848210356962,-9.24149924760312,-27.1611502328498,6.01099733209585,-24.4563972701181,-35.2773024352744,-7.13911462588668,77.5386106468171,-23.0814468420317,-0.127311813015799,-18.247742637578
4.13657878853505,-9.26319923881988,-27.144738346431,6.00343410174532,-24.5274979995448,-34.9941783818217,-7.09488893697042,77.5227480129252,-22.6076581954843,-1.20383674080537,-17.4467520460656
4.44037633608236,-9.28057346169036,-27.1287468443409,5.99575432147609,-24.5967509555028,-34.69726135356,-7.04598740151768,77.5010938794317,-22.1442334103311,-2.2917819600161,-16.6519512027287
4.73743678979572,-9.2934257781744,-27.1131005193831,5.98773248270004,-24.6631470811072,-34.3871848593524,-6.99188650853504,77.4718880425341,-21.6937899377888,-3.3820712969346,-15.8714681357237
5.0253702282863,-9.30161154927875,-27.0977076300089,5.97913492365277,-24.725710529176,-34.0646408325793,-6.93209632542784,77.4332868640657,-21.2585895280293,-4.46612467527043,-15.112493666443
5.3018674301918,-9.30503754646645,-27.082462910816,5.96972487312197,-24.7835166106463,-33.7303700047368,-6.86617330241291,77.3833980894687,-20.8404952128912,-5.53598844993304,-14.3811216937265
5.56473148023478,-9.30366084874355,-27.0672509130954,5.95926754491686,-24.8357076226847,-33.3851523614952,-6.79373242526044,77.3203179385657,-20.4409388393341,-6.58442166928779,-13.6822522692767
5.81190770004368,-9.29748681198111,-27.0519495533986,5.94753518210682,-24.8815061527172,-33.02979786193,-6.71445847163008,77.2421693770018,-20.0609000431479,-7.60494369266965,-13.0195546983384
6.04151132463354,-9.28656622357059,-27.0364337482571,5.93431195564853,-24.9202255710814,-32.6651375687704,-6.62811613125215,77.1471404501801,-19.7008971774238,-8.59185041179903,-12.3954846260565
6.25185239247677,-9.27099177637441,-27.0205790180688,5.91939862516867,-24.9512775470562,-32.2920153092644,-6.53455875052092,77.0335215862987,-19.3609903149304,-9.54020695381847,-11.8113468756693
6.44145737428152,-9.25089400963232,-27.004264952502,5.90261686955564,-24.9741765479318,-31.9112799613233,-6.43373547011697,76.8997408491023,-19.0407960338178,-10.4458244018012,-11.2673946231149
6.60908713256581,-9.22643687049325,-26.9873784430183,5.88381319195673,-24.9885414017053,-31.5237784390965,-6.32569654815018,76.7443962372137,-18.7395132845651,-11.3052270488984,-10.7629551581195
6.75375088001682,-9.19781304828195,-26.9698166043333,5.86286229995499,-24.9940941104984,-31.1303494398628,-6.21059670073276,76.5662842728165,-18.455959247614,-12.1156153108533,-10.2965727843342
6.87471588824407,-9.16523922477151,-26.951489324904,5.83966986150129,-24.990656186261,-30.7318180107914,-6.08869634248484,76.3644242814591,-18.1886137556048,-12.8748279298828,-9.86616014859952
6.97151278838479,-9.12895136858673,-26.9323214056242,5.81417454536077,-24.9781428424807,-30.3289909943197,-5.96036066794473,76.1380779218538,-17.9356705947073,-13.5813057112219,-9.46915030548454
7.04393639939461,-9.08920018291932,-26.9122542631881,5.78634927345059,-24.9565554198591,-29.9226534069495,-5.82605657861852,75.8867636715517,-17.6950938285906,-14.234057864374,-9.10264301232312
7.09204211688159,-9.04624679614484,-26.8912471867854,5.75620163991351,-24.9259724537348,-29.513565792423,-5.68634752563489,75.6102661098685,-17.4646772114933,-14.8326311366526,-8.76354003605285
7.11613799300724,-9.00035876631024,-26.8692781428968,5.72377348477997,-24.8865398067191,-29.1024625637883,-5.54188640045326,75.3086399648883,-17.2421047743518,-15.3770813433628,-8.44866556758794
7.11677273416892,-8.95180645235082,-26.8463441256418,5.68913964550937,-24.8384602899742,-28.6900513099428,-5.3934066616737,74.9822090073627,-17.0250107732176,-15.8679465920978,-8.15486911399688
7.09471993569795,-8.90085978630857,-26.8224610536665,5.65240594476653,-24.7819831791866,-28.2770129943319,-5.24171192936851,74.6315599792956,-16.8110373660592,-16.3062214072667,-7.87910941549748
7.05095895939726,-8.84778546168779,-26.7976632219888,5.6137065047344,-24.7173939968022,-27.8640029238318,-5.08766430467581,74.2575318376848,-16.5978886112559,-16.6933310007933,-7.61851898064247
6.98665293810037,-8.79284453460994,-26.7720023289249,5.57320050452586,-24.6450048843415,-27.4516523248586,-4.93217168363288,73.8612006765601,-16.3833796383834,-17.0311050232901,-7.37044974061226
6.90312445923661,-8.73629041888316,-26.7455461120308,5.53106851553094,-24.5651458341524,-27.0405703416286,-4.77617433974115,73.4438607675243,-16.1654801121323,-17.3217502114926,-7.13250109138747
6.80182953432142,-8.67836724572443,-26.7183766396716,5.48750855807906,-24.4781569935175,-26.6313462716805,-4.62063105439487,73.0070022301985,-15.9423513799645,-17.5678213991828,-6.90253221724443
6.68433050109636,-8.61930855422879,-26.6905883143104,5.44273202134192,-24.3843821951371,-26.2245518690645,-4.46650506856826,72.5522859008175,-15.7123769538568,-17.7721903803803,-6.67866106454352
6.55226852758425,-8.55933627805789,-26.6622856501835,5.39695957863507,-24.2841638044426,-25.8207435631214,-4.31475009874326,72.0815159995382,-15.4741862173601,-17.9380121239036,-6.45925265364476
6.40733639069011,-8.49865999456863,-26.6335808934682,5.35041721495517,-24.1778389078188,-25.4204644509733,-4.16629660385516,71.5966112030011,-15.2266714598759,-18.0686878683475,-6.24289957383962
6.25125218461937,-8.43747640309238,-26.6045915581156,5.30333246517993,-24.0657368027621,-25.0242459225508,-4.02203842222533,71.0995747160821,-14.9689985101707,-18.1678247034157,-6.02839750571728
6.08573457529846,-8.37596899913921,-26.5754379539948,5.25593094110478,-23.9481776960204,-24.632608771373,-3.88281983408147,70.5924639146672,-14.7006113680569,-18.2391913809907,-5.81471846922404
5.91248015592485,-8.31430791147577,-26.5462407838855,5.20843320376112,-23.8254724690522,-24.2460636382406,-3.74942305644256,70.077360103611,-14.4212313217364,-18.2866703007953,-5.60098421361382
5.73314337649767,-8.25264986994821,-26.5171188810888,5.16105201494531,-23.6979233295678,-23.8651106373534,-3.62255615316138,69.5563389018448,-14.1308510939591,-18.3142058791625,-5.38644175408202
5.54931941866378,-8.19113827406358,-26.4881871505073,5.11398998006663,-23.5658251332486,-23.4902380380868,-3.50284136039831,69.0314417340579,-13.8297245836779,-18.3257498229633,-5.17044253436279
5.3625302698371,-8.12990333579555,-26.459554765108,5.06743757472161,-23.4294671342935,-23.1219199308572,-3.39080389987826,68.5046488813926,-13.5183527579322,-18.3252041640207,-4.95242609268825
5.17421412216282,-8.06906227470707,-26.4313236593546,5.02157153076623,-23.289134913498,-22.7606128862199,-3.28686146954222,67.9778545210082,-13.1974661988902,-18.3163632154533,-4.73190849428521
4.98571808873541,-8.0087195492883,-26.403587352541,4.9765535451142,-23.1451122455332,-22.4067517021379,-3.19131473134252,67.4528441569329,-12.8680047301582,-18.3028558420071,-4.50847524355885
4.79829409884454,-7.94896711539038,-26.376430126761,4.93252926718604,-22.997682704831,-22.0607444100779,-3.10433922650327,66.9312748049841,-12.531094457146,-18.2880895672807,-4.2817779657108
4.61309771374218,-7.88988471042708,-26.3499265743998,4.88962751948099,-22.8471308604886,-21.7229667746635,-3.02597921775152,66.4146582398404,-12.1880224912714,-18.2751980876798,-4.05153387770091
4.43118950204972,-7.83154016988099,-26.3241415171668,4.8479597103453,-22.693742955393,-21.3937565727546,-2.95614396593334,65.9043475385561,-11.8402096126122,-18.2669937644526,-3.81752694540528
4.2535385357587,-7.77398978973427,-26.2991302825205,4.80761940867422,-22.5378069931548,-21.0734079673807,-2.89460688304934,65.4015270606217,-11.4891811637564,-18.2659266399101,-3.57960962906503
4.08102751781356,-7.71727875377364,-26.2749393047226,4.76868206586655,-22.3796121756431,-20.7621662921158,-2.84100787784851,64.9072059002436,-11.1365365424225,-18.2740514501764,-3.3377042381326
3.91445903120221,-7.66144164727372,-26.2516069988141,4.73120488763013,-22.2194476595827,-20.4602235318941,-2.79485905207337,64.4222147495342,-10.7839177503801,-18.2930039468345,-3.09180313058307
3.75456240404231,-7.60650307754983,-26.2291648395159,4.6952268729736,-22.0576006453813,-20.1677147335548,-2.75555373620524,63.9472060362073,-10.4329775464818,-18.3239875716811,-2.84196726488359
3.6020007079212,-7.55247841699256,-26.2076385659936,4.66076904646129,-21.8943538792495,-19.884715514623,-2.72237868342908,63.482657151667,-10.0853478320958,-18.3677711522234,-2.58832289897769
3.45737743680994,-7.49937467578278,-26.1870494288579,4.62783491082187,-21.72998273335,-19.6112407732788,-2.69452907990917,63.0288765602675,-9.74260895611264,-18.4246978178718,-2.3310564906108
3.32124243850583,-7.44719150069118,-26.1674153976621,4.5964111404122,-21.5647521072415,-19.34724464469,-2.67112589361475,62.5860125640941,-9.40626065344442,-18.4947048136589,-2.07040806343441
3.19409667817035,-7.39592228498854,-26.1487522544563,4.56646852364161,-21.3989134392487,-19.0926217051881,-2.65123498849006,62.1540644737631,-9.07769532309869,-18.5773533590225,-1.80666345458825
3.0763953978081,-7.345555364395,-26.1310745101069,4.5379631469622,-21.2327021099764,-18.8472093999516,-2.63388738327348,61.7328958975007,-8.75817431259102,-18.6718672147204,-1.54014595471604
2.96854920037963,-7.29607526655684,-26.1143960939703,4.51083779719691,-21.0663354648365,-18.6107916601885,-2.61810003192142,61.3222498159832,-8.44880780546686,-18.7771782270868,-1.27120790022243
2.87092255134543,-7.24746397743517,-26.098730783616,4.48502354537226,-20.9000115972656,-18.3831036740224,-2.60289653896756,60.9217650750774,-8.15053880582673,-18.891976853882,-1.00022278789177
2.78382918940173,-7.19970218734504,-26.0840923588053,4.46044146608559,-20.7339089404276,-18.1638377710722,-2.58732729256891,60.5309939149122,-7.86413157862553,-19.0147655642324,-0.727578454112225
2.707524021296,-7.15277048210528,-26.0704944808657,4.43700444306295,-20.568186627603,-17.9526503677694,-2.57048859209998,60.1494201656254,-7.59016474404341,-19.1439130513747,-0.453671790364301
2.64219129452862,-7.10665045058712,-26.05795031294,4.41461901366861,-20.4029855095572,-17.7491698980537,-2.55154045282873,59.7764777761911,-7.32902905037787,-19.2777073867637,-0.178905352159237
2.58792923006549,-7.06132568802827,-26.0464719078851,4.39318721120059,-20.2384296677652,-17.5530056241003,-2.52972287292907,59.4115693982383,-7.0809296773873,-19.4144065416232,0.0963139316822203
2.54473184511014,-7.01678268334776,-26.0360693998452,4.37260837205805,-20.0746282408965,-17.3637571860697,-2.50437043503768,59.0540848137762,-6.84589276592387,-19.5522850508781,0.371573912833774
2.51246933026984,-6.97301158710142,-26.0267500433661,4.35278088338808,-19.9116773901642,-17.1810247107161,-2.47492517573634,58.7034190637647,-6.62377574245158,-19.6896759400533,0.646454377890259
2.49086892949568,-6.93000686423988,-26.0185171499432,4.33360385364259,-19.7496622615077,-17.004419260444,-2.44094768719427,58.3589901932412,-6.41428091603734,-19.8250073489195,0.920522505659272
2.47949863667262,-6.88776784244859,-26.0113689756356,4.31497869259277,-19.5886588463716,-16.8335733744677,-2.40212641933442,58.0202565714661,-6.21697177265534,-19.9568335538174,1.19332706919895
2.47775602988718,-6.84629917212587,-26.0052976151362,4.29681058935798,-19.4287356834082,-16.6681514383913,-2.35828513745269,57.6867337698421,-6.03129137383237,-20.0838602987337,1.46439191896255
2.48486416722171,-6.80561121705725,-26.0002879581547,4.27900987822477,-19.2699553721766,-16.5078596159071,-2.3093884672162,57.3580109867161,-5.85658227502262,-20.2049644863613,1.7332093207783
2.49987574913572,-6.7657203949314,-25.9963167632874,4.26149328309235,-19.1123758889701,-16.3524550771766,-2.25554543266827,57.0337670001171,-5.6921074017748,-20.3192083755146,1.99923371127455
2.52168590273549,-6.72664948417079,-25.9933519021755,4.24418503217336,-18.9560517130128,-16.2017542547111,-2.19701087351331,56.7137856123419,-5.53707134779705,-20.425848513736,2.2618763939402
2.54905319020844,-6.6884279084514,-25.991351822339,4.22701783545252,-18.8010347954143,-16.0556398471504,-2.13418462687085,56.3979705267424,-5.39064158244152,-20.5243397106821,2.52050164285604
2.58062796756615,-6.65109200262742,-25.9902652712927,4.20993371947446,-18.6473754342183,-15.9140662782512,-2.06760837682457,56.0863595655464,-5.2519690782134,-20.6143344055302,2.77442460778955
2.6149870980732,-6.61468525365401,-25.990031318204,4.19288471775702,-18.495123151464,-15.7770633122447,-1.99796010370355,55.7791380961957,-5.1202078995754,-20.6956777884143,3.02291132432968
2.65067422826703,-6.57925849902299,-25.9905797018544,4.17583341911831,-18.3443276937859,-15.6447375403754,-1.92604609923118,55.4766514846714,-4.99453333742525,-20.7683990293419,3.26518103234462
2.68624526528688,-6.54487005581885,-25.9918315231545,4.15875337822778,-18.1950402886536,-15.5172714972051,-1.85279055725234,55.1794163444342,-4.87415822676038,-20.832698986302,3.50041089820137
2.72031923570194,-6.51158574781265,-25.9937002860242,4.14162939151836,-18.0473152790545,-15.394920242022,-1.77922280824473,54.888130307554,-4.75834714291279,-20.8889348131912,3.7277431170048
2.75163525901877,-6.47947879637099,-25.9960932734441,4.12445763773004,-17.9012122282364,-15.2780053468051,-1.70646234063352,54.6036800177217,-4.64642823181462,-20.9376019415087,3.9462942398018
2.77911686097551,-6.44862954250158,-25.9989132284302,4.10724567726038,-17.7567985332578,-15.1669063604305,-1.63570183720951,54.3271470371761,-4.53780249446447,-20.9793139417236,4.15516643700403
2.80194521884775,-6.41912497121675,-26.0020602944533,4.0900122995337,-17.6141525163507,-15.0620499549087,-1.56818853503486,54.0598113688984,-4.43195041914138,-21.01478077976,4.3534602891596
2.81964307899875,-6.39105801532237,-26.0054341571365,4.07278720373154,-17.4733668883188,-14.9638970788702,-1.50520427270491,53.8031523123495,-4.32843593630116,-21.0447859951391,4.54028860423033
2.83217083318586,-6.36452662393396,-26.0089363186707,4.05561049629015,-17.3345524136896,-14.872928522397,-1.44804460975915,53.5588463856976,-4.22690775447645,-21.070163358647,4.71479070363487
2.84003523926813,-6.33963259161003,-26.0124724274667,4.03853198912921,-17.1978415628806,-14.7896293309274,-1.39799739405419,53.3287620587001,-4.12709821819295,-21.091773591524,4.87614659240513
2.8444089358564,-6.31648015656531,-26.0159545777923,4.02161028567776,-17.0633919115842,-14.7144725106709,-1.35632112584148,53.1149510565436,-4.02881991597585,-21.1104816832237,5.02359042096029
2.84725436267419,-6.29517438998648,-26.0193034884163,4.00491164713058,-16.9313890369919,-14.6479024614121,-1.32422343317842,52.9196360258491,-3.93196035994703,-21.1271352070461,5.15642265586653
2.85143796256221,-6.27581941183754,-26.0224504670245,3.98850863826308,-16.8020486633481,-14.5903185582693,-1.30283994107419,52.7451944049066,-3.83647514526995,-21.1425438583586,5.27402041752698
2.86080909904177,-6.25851648047376,-26.0253390696466,3.97247855925323,-16.6756178280596,-14.5420592771435,-1.29321379354703,52.5941384123191,-3.74238005545462,-21.1574603200135,5.37584552910012
2.88020441704952,-6.24336201239878,-26.0279263726902,3.95690167628321,-16.5523748742097,-14.5033872187839,-1.29627607695753,52.469091161533,-3.64974259300579,-21.1725625488545,5.4614499564176
2.91532808460677,-6.23044559320388,-26.0301837901397,3.94185926949506,-16.4326281212112,-14.4744753395307,-1.31282739403573,52.3727590208007,-3.55867338301289,-21.1884376629537,5.53047849010792
2.97246290417095,-6.21984804083404,-26.032097389241,3.92743152312042,-16.3167131151824,-14.4553946505338,-1.34352084869065,52.3079004626482,-3.46931782763164,-21.2055677264147,5.58266870210189
3.05800027822886,-6.21163957903522,-26.0336676823338,3.91369528939888,-16.2049884070287,-14.4461036084463,-1.38884671987119,52.2772917747796,-3.38184829082535,-21.2243178044108,5.61784837109818
3.1778414201387,-6.20587817401935,-26.0349088977104,3.90072176421944,-16.0978298444773,-14.4464393947283,-1.44911912634533,52.2836901273529,-3.29645697296531,-21.2449266590187,5.63593070022891
3.33679416182789,-6.20260808223679,-26.0358477561474,3.88857411742133,-15.9956233952583,-14.4561112679058,-1.52446500994136,52.3297946039845,-3.21334950151768,-21.2675003874042,5.63690774663274
3.53812123175487,-6.20185865169963,-26.036521800745,3.87730512454227,-15.8987565487543,-14.4746961637164,-1.61481578639368,52.4182059003922,-3.13273912575865,-21.2920092034388,5.62084255565097
3.7833519367228,-6.20364341300023,-26.0369773458407,3.86695484960415,-15.8076083806976,-14.5016366974803,-1.71990202171111,52.5513854695279,-3.05484127235196,-21.3182874627697,5.58786054709346
4.07236886747331,-6.20795948862489,-26.0372671262675,3.85754842940007,-15.7225384138757,-14.5362416841117,-1.83925147923342,52.7316149418213,-2.97986811334391,-21.346036943475,5.53814073575116
4.40368794947096,-6.21478734019801,-26.037447740569,3.84909400805791,-15.6438744661011,-14.5776892381175,-1.9721908425669,52.9609566734798,-2.90802274195097,-21.3748333186581,5.4719073770932
4.77481431794786,-6.22409086279589,-26.0375769896975,3.84158086692743,-15.5718997408661,-14.6250324560977,-2.11785135019147,53.2412162754452,-2.83949256391496,-21.4041356862031,5.3894226058529
5.1825782861408,-6.23581782367675,-26.0377112149803,3.83497778950034,-15.5068394808927,-14.6772076212099,-2.27517847834598,53.5739079507866,-2.77444160158386,-21.4332989483684,5.29098057629418
5.62340181696051,-6.24990063078751,-26.0379027350291,3.8292316938662,-15.4488475634659,-14.7330448041617,-2.44294568141499,53.9602234196722,-2.71300157037994,-21.4615887600422,5.17690351729956
6.09348579985679,-6.26625740590099,-26.0381974706775,3.82426655673254,-15.3979934620365,-14.7912806701414,-2.61977204924334,54.4010051408643,-2.65526180677483,-21.4881986972921,5.04753998584688
6.58893051596822,-6.28479332934909,-26.0386328306583,3.81998264544468,-15.3542500266608,-14.8505732358883,-2.80414357859079,54.8967244500389,-2.60125837462113,-21.5122692510362,4.90326544883766
