Finger Velocity,Scap_X,Scap_Y,Scap_Z,Shoulder horiz abd-adduction,Shoulder flexion-extension,Shoulder internal-external rotation,elbow flexion-extension,forearm pronation-supination,wrist flexion-extension,wrist radial-ulnar deviation
1.00261332099285,-11.8478695946783,-33.056811305811,8.70915561980476,-20.7383354041845,-37.1955588624295,-11.4025318226399,80.537814472644,-31.3317661890275,12.1648518125558,-27.4314565800608
1.24076011107578,-11.906525959892,-33.0180342808104,8.65381745108844,-20.8236332864877,-37.0847213764485,-11.4746484488602,80.4685652373241,-30.9723585352918,11.881151222857,-27.2858926252598
1.49217978428184,-11.9674824201533,-32.9788212916541,8.59448940915803,-20.9122873940156,-36.9685427509067,-11.5446683581632,80.4020317769911,-30.5917250934977,11.5508981345296,-27.1003458684163
1.75494917835213,-12.0304839454645,-32.9394099155331,8.53124421665659,-21.0037138703982,-36.8474257481383,-11.6119587815226,80.338908470293,-30.1909557345647,11.1721001097992,-26.8720568981111
2.02696138685266,-12.095279733976,-32.9000360069469,8.46415841961315,-21.0972316804478,-36.7217906414773,-11.6758814771145,80.279794239666,-29.7713195466154,10.7435650529235,-26.5990252898442
2.30593648229918,-12.1616300775446,-32.860928945353,8.39330807696919,-21.1920679706439,-36.592060350142,-11.735798417448,80.2251695473195,-29.3342398722579,10.2650085322878,-26.2801416772712
2.589444365891,-12.2293124272698,-32.8223069605166,8.31876516411728,-21.2873662545557,-36.4586445007724,-11.7910778221426,80.175375656111,-28.8812660103086,9.73712712306065,-25.9152862195078
2.87493481931398,-12.2981263748526,-32.7843726780956,8.2405948892579,-21.3821973641033,-36.321922860736,-11.8411006044178,80.1305967916309,-28.4140425523851,9.16162918346865,-25.5053835666224
3.15977241640425,-12.3678973140325,-32.7473090156309,8.15885406106497,-21.4755729942107,-36.1822286465584,-11.8852672833972,80.0908457269738,-27.934277415724,8.54121725556191,-25.0524072261249
3.44127488162683,-12.4384786097736,-32.7112755442766,8.07359057543059,-21.5664615538873,-36.0398322506085,-11.9230053782377,80.0559531798361,-27.4437096658124,7.87952010357669,-24.5593301658583
3.71675383884478,-12.5097521793182,-32.6764054179515,7.98484401633206,-21.6538059286776,-35.894925943464,-11.9537772499076,80.0255612699951,-26.9440781892616,7.18097687229574,-24.0300231423228
3.9835570363887,-12.5816274718688,-32.6428029582062,7.8926473000277,-21.7365426701123,-35.7476100951641,-11.9770882979999,79.9991211431774,-26.4370921765084,6.45068036566831,-23.4691070131575
4.23911119598096,-12.6540389126161,-32.6105419647284,7.79702923925566,-21.8136220703059,-35.5978814200185,-11.992495360671,79.9758947346211,-25.9244042196481,5.69419034310197,-22.8817694933119
4.4809646675165,-12.7269419455089,-32.5796647944294,7.69801786623789,-21.8840285586738,-35.4456236944158,-11.9996151142729,79.9549605300641,-25.4075866563901,4.91733041264134,-22.2735598220929
4.70682910232299,-12.8003078673714,-32.5501822191398,7.59564432642637,-21.9468008642871,-35.2906013300961,-11.9981322306125,79.9352230864124,-24.88811163078,4.12598315717618,-21.6501761921969
4.91461939454644,-12.8741176960803,-32.5220740389277,7.48994713439184,-22.0010514055181,-35.1324561092344,-11.9878070233937,79.9154259969036,-24.3673352098318,3.32589742629031,-21.0172604169476
5.10249118778286,-12.9483553567624,-32.4952903983946,7.38097656815242,-22.0459843865411,-34.9707073055285,-11.9684822998605,79.8941679232429,-23.8464857868063,2.52251945169475,-20.380212370173
5.2688753026943,-13.0230004982853,-32.4697537276169,7.26879897235169,-22.0809120982217,-34.8047553292244,-11.9400891314681,79.869921270103,-23.3266569010554,1.72085607301133,-19.7440336795662
5.41250850962945,-13.0980212640296,-32.4453612087818,7.1535007486255,-22.1052689477691,-34.6338889419219,-11.902651272837,79.841053047489,-22.8088044985631,0.925374516118489,-19.113206569867
5.53246014504051,-13.173367335331,-32.4219876567207,7.03519183465429,-22.1186227858578,-34.4572959857015,-11.8562879925477,79.8058474535221,-22.2937485447467,0.139939449516903,-18.491610189749
5.62815414699956,-13.2489635442202,-32.3994886983996,6.91400850977274,-22.1206831665759,-34.2740774599573,-11.801215130006,79.7625297107507,-21.782178787666,-0.632215093612796,-17.8824736292348
5.69938615700013,-13.3247043158328,-32.3777041413489,6.79011541150445,-22.1113062663545,-34.083264662873,-11.7377442558643,79.7092906978502,-21.2746643606968,-1.38848363945146,-17.2883623843642
5.74633539435099,-13.400449152252,-32.3564614292624,6.66370670104061,-22.0904963008506,-33.8838390012761,-11.6662798857899,79.6443119299834,-20.7716668093883,-2.12686311769769,-16.7111933585991
5.76957104581313,-13.4760193118463,-32.3355790905299,6.53500637245721,-22.0584034057137,-33.6747539712564,-11.5873147750891,79.5657904515807,-20.2735560264429,-2.84590914343589,-16.1522726164046
5.77005291481546,-13.5511957760342,-32.3148700919377,6.40426775408168,-22.0153180772862,-33.4549587283769,-11.5014234003562,79.4719632161647,-19.7806284827898,-3.54468090571645,-15.612349938573
5.74912602830716,-13.6257185348403,-32.2941450177496,6.27177229310222,-21.9616623932367,-33.2234226044033,-11.4092538091018,79.361130545783,-19.2931270547427,-4.22267992327956,-15.0916845928843
5.70850879163806,-13.699287169784,-32.2732150067494,6.13782773940607,-21.8979783444339,-32.9791598907572,-11.3115180856866,79.2316782957265,-18.8112616694115,-4.87978675651528,-14.5901174067716
5.65027410211902,-13.7715626715711,-32.2518943980125,6.00276584883012,-21.8249137022366,-32.7212542000563,-11.2089817384825,79.0820984018154,-18.3352299279393,-5.51619861241244,-14.10714501578
5.57682257758488,-13.8421704008009,-32.230003060193,5.86693971252401,-21.7432059134962,-32.4488817360356,-11.1024523529763,78.911007552379,-17.8652368337223,-6.1323698280793,-13.6419929354611
5.49084674212327,-13.9107040797064,-32.2073684077393,5.73072079573846,-21.6536645547499,-32.1613328449988,-10.9927678714749,78.7171637938467,-17.4015127711835,-6.72895651263592,-13.1936848140298
5.39528468274037,-13.9767306885348,-32.1838271371371,5.5944957445782,-21.5571528890304,-31.8580312837832,-10.8807848506864,78.4994809375104,-16.944328959443,-7.30676611220695,-12.7611058680642
5.29326144165148,-14.0397961292468,-32.1592267405768,5.45866299871544,-21.4545690604031,-31.538550717814,-10.7673670201352,78.2570406819178,-16.4940097328074,-7.86671226555421,-12.3430590891585
5.18801639655091,-14.0994315110731,-32.1334268664129,5.3236292335978,-21.3468274391917,-31.2026280585715,-10.6533744257955,77.9891024029071,-16.0509411558028,-8.40977499912279,-11.9383133274353
5.08281533033361,-14.1551599079856,-32.1063005923102,5.18980564681267,-21.234840596509,-30.8501733617127,-10.5396533991943,77.6951105965608,-15.6155756550511,-8.93696606392151,-11.5456428022837
4.98084706537924,-14.2065034381611,-32.0777356603992,5.0576040989209,-21.1195023390984,-30.4812761293155,-10.4270275421972,77.3746999937849,-15.1884325467933,-9.44929904489203,-11.1638579725102
4.88510665235387,-14.2529905193925,-32.0476356995031,4.92743311838407,-21.0016721745595,-30.0962079829302,-10.3162898594036,77.0276984000628,-14.7700945560126,-9.94776376700562,-10.7918280329943
4.79827017815612,-14.2941631605318,-32.0159214330159,4.79969378308876,-20.8821615043285,-29.6954217897509,-10.2081961034503,76.6541273475493,-14.3612006435112,-10.433304466266,-10.4284955939281
4.7225699255577,-14.3295841562665,-31.9825318467532,4.67477549852666,-20.7617217596231,-29.2795474268081,-10.1034593289235,76.2542006744664,-13.9624356521837,-10.9068011921818,-10.0728843267703
4.65968200549742,-14.3588440605844,-31.9474252725234,4.55305170607391,-20.6410346078587,-28.8493844539192,-10.0027455875336,75.8283211656526,-13.5745174260537,-11.3690539837166,-9.72410051550467
4.61064041346638,-14.3815678232896,-31.9105803321517,4.4348755732501,-20.5207042708838,-28.4058920316768,-9.90667064978305,75.3770753988188,-13.1981821294328,-11.8207695123523,-9.38132954066626
4.57579048021619,-14.3974209838272,-31.8719966827561,4.32057573903897,-20.4012519213282,-27.9501764632432,-9.81579761116945,74.9012269475814,-12.8341684939827,-12.2625500648209,-9.04382837298506
4.55479033004099,-14.4061153266888,-31.8316955052255,4.21045220925766,-20.2831120678006,-27.4834767580091,-9.73063523314234,74.4017080988991,-12.4832016514868,-12.6948848837788,-8.71091518517839
4.54666189018539,-14.407413911148,-31.7897196821011,4.10477251753512,-20.1666308071587,-27.0071486148428,-9.65163687529006,73.87961025116,-12.1459770837512,-13.1181439741499,-8.38195720486182
4.54988507390555,-14.4011353933484,-31.7461336175924,4.00376828305582,-20.0520658101981,-26.5226472089896,-9.57919988831709,73.3361731685515,-11.8231450682338,-13.5325745313397,-8.0563579135892
4.56252231696103,-14.3871575610278,-31.7010226617669,3.90763230173756,-19.9395879090249,-26.0315091456843,-9.51366535031148,72.7727732731033,-11.5152958583424,-13.9383001744694,-7.73354463212422
4.582357431395,-14.3654200035125,-31.6544921140913,3.81651629890563,-19.829284161965,-25.5353339190953,-9.45531803694618,72.1909111532014,-11.2229457436849,-14.3353231759861,-7.41295741415317
4.60703320229022,-14.3359258466767,-31.6066657988926,3.73052944828083,-19.7211622780859,-25.0357651900434,-9.40438651937023,71.5921984554863,-10.946524101364,-14.7235298574605,-7.09404000421922
4.63417546136115,-14.2987424972596,-31.5576842263135,3.64973772764152,-19.6151562828189,-24.5344721719474,-9.36104328601103,70.9783443091026,-10.6863615683631,-15.1026992516004,-6.77623341840331
4.66149602329579,-14.2540013630133,-31.5077023758296,3.57416414129676,-19.5111332951148,-24.0331313915502,-9.32540479164306,70.3511414113787,-10.4426795183885,-15.4725149973405,-6.45897250211315
4.68687142830292,-14.2018965422759,-31.4568871637501,3.50378979831374,-19.4089012652297,-23.5334090672428,-9.29753135138909,69.7124518846649,-10.2155810912359,-15.8325802491878,-6.14168562053845
4.70839798257677,-14.1426825060747,-31.4054146785332,3.43855579651285,-19.3082174958103,-23.0369443215281,-9.27742681991516,69.064192995855,-10.0050440785476,-16.1824351873107,-5.82379744236116
4.72442581682486,-14.0766708253265,-31.3534672844687,3.37836582812254,-19.2087977454509,-22.545333415295,-9.26503802955855,68.408322813268,-9.81091600318358,-16.5215765610829,-5.50473458958776
4.73357571693834,-14.0042260226,-31.3012307024233,3.32308939608017,-19.1103256999154,-22.0601151612968,-9.26025400695101,67.7468258620129,-9.63291173321824,-16.8494786150705,-5.18393376214778
4.73474264827225,-13.9257606496738,-31.2488911753346,3.27256551220837,-19.0124625938166,-21.5827576438241,-9.26290504122124,67.0816988316734,-9.47061394220482,-17.165614735818,-4.86085182083489
4.72708954665551,-13.8417297069272,-31.1966328171675,3.22660674109685,-18.9148567719645,-21.1146463418849,-9.27276172906277,66.4149363900361,-9.323476661602,-17.4694792014403,-4.53497723195585
4.71003436544985,-13.7526245279582,-31.1446352285572,3.18500345634789,-18.8171529901542,-20.6570737251664,-9.28953416634781,65.7485171618446,-9.19083206465419,-17.7606084845521,-4.20584224084869
4.68323273361075,-13.6589662537812,-31.0930714418559,3.14752818649224,-18.7190012671484,-20.2112303663183,-9.31287149084793,65.0843899404697,-9.07190047065956,-18.0386016300703,-3.87303514303564
4.64655799654461,-13.56129901772,-31.0421062346932,3.1139399422849,-18.6200651137895,-19.7781975893145,-9.34236200538753,64.4244602120989,-8.96580337092607,-18.3031392909769,-3.53621204804677
4.60007992291209,-13.4601829572181,-30.9918948262786,3.08398843165271,-18.520028983973,-19.3589416511911,-9.37753412271726,63.7705770850735,-8.87157907363169,-18.5540010491222,-3.19510756842352
4.54404297471258,-13.3561871639209,-30.9425819456869,3.05741808145474,-18.4186048170235,-18.9543094348174,-9.41785836722761,63.1245207295402,-8.78820037538262,-18.7910806793092,-2.84954391148708
4.47884474564651,-13.2498826789821,-30.8943012374243,3.03397179599117,-18.3155375719059,-18.5650256168627,-9.46275063759683,62.4879904442716,-8.71459352349841,-19.0143990576202,-2.49943791137481
4.4050149577805,-13.1418356363219,-30.8471749485946,3.01339439131705,-18.2106096903867,-18.1916912686362,-9.51157687620915,61.8625934784017,-8.64965765639169,-19.2241144907286,-2.14480562348893
4.32319525203812,-13.032600652403,-30.8013138266235,2.99543565347747,-18.1036444673708,-17.8347838437242,-9.56365921282218,61.2498347436524,-8.59228390836573,-19.4205303449681,-1.78576421701769
4.23411989907489,-12.9227145569128,-30.7568171492744,2.97985298028922,-17.9945083477964,-17.4946585000429,-9.61828356245774,60.6511075527522,-8.54137343869212,-19.6040999492751,-1.42253103881555
4.13859748162996,-12.8126905540787,-30.7137728111983,2.96641358199905,-17.8831122038107,-17.1715506940296,-9.67470856600716,60.0676855078588,-8.49585378517439,-19.775428797589,-1.05541987063019
4.03749354832513,-12.7030128985144,-30.672257403669,2.95489623540125,-17.7694116681825,-16.8655799730174,-9.7321756686806,59.5007156377573,-8.45469313097291,-19.9352740666853,-0.68483454507044
3.93171420546808,-12.5941321621721,-30.6323362455029,2.94509260601942,-17.6534066095952,-16.5767548780593,-9.78992004492539,58.9512128478429,-8.41691227825091,-20.084541414332,-0.311260212055079
3.8221905931284,-12.4864611599929,-30.5940633509403,2.93680817032777,-17.5351398360104,-16.3049788516351,-9.84718201408283,58.4200557092543,-8.3815943073488,-20.2242789829751,0.0647473468895671
3.70986418164521,-12.3803715906545,-30.5574813489676,2.92986278180991,-17.4146951082027,-16.0500570244748,-9.90321856133223,57.9079835806125,-8.34789204029115,-20.3556685601377,0.442573873821163
3.59567282314085,-12.2761914349623,-30.5226213910276,2.92409092961341,-17.2921945409703,-15.8117037388911,-9.95731458652758,57.4155950336887,-8.31503351247232,-20.4800139498385,0.821559713697781
3.48053749892203,-12.1742031391052,-30.489503096995,2.91934173783295,-17.1677954679255,-15.589550654777,-10.0087935429789,56.9433475453393,-8.28232568868987,-20.5987267413208,1.20101323970116
3.36534971798481,-12.0746425959402,-30.4581345951973,2.91547874978623,-17.0416868496991,-15.383155274391,-10.0570271865833,56.491558419074,-8.24915665071759,-20.7133097483897,1.58022405166454
3.25095954483087,-11.9776989261332,-30.4285127135884,2.91237953707488,-16.9140853155317,-15.1920097105772,-10.1014442204261,56.0604069035591,-8.21499645017616,-20.8253383931417,1.95847542162066
3.13816426720085,-11.883515050806,-30.4006233733037,2.90993516835647,-16.7852309426133,-15.0155495167275,-10.1415376835027,55.6499374763736,-8.17939677940639,-20.9364402424416,2.3350555487079
3.02769775650288,-11.7921890356342,-30.3744422183423,2.90804956769683,-16.6553828920132,-14.8531624055893,-10.1768709903843,55.2600642580241,-8.14198957791926,-21.0482728406294,2.70926731020489
2.92022062498141,-11.7037761720944,-30.3499354861262,2.90663878713514,-16.5248150288505,-14.7041967108162,-10.207082575767,54.8905765149111,-8.10248467270429,-21.1624999859848,3.08043634135971
2.81631134154005,-11.6182917457751,-30.3270610900318,2.90563021284234,-16.3938116511473,-14.5679694832137,-10.2318891280291,54.541145201888,-8.06066655164327,-21.28076669799,3.44791741762097
2.71645852757523,-11.5357144264083,-30.3057698585532,2.90496172023397,-16.2626634328562,-14.4437741507196,-10.2510874103642,54.2113304866482,-8.0163903866002,-21.404673286537,3.81109922170676
2.62105470722076,-11.4559902015432,-30.2860068677068,2.9045807921533,-16.1316636549742,-14.3308876960945,-10.2645546762068,53.900590191514,-7.96957744650321,-21.5357490985132,4.16940764287297
2.53039182237418,-11.3790367660266,-30.2677128144779,2.90444361512763,-16.0011047640617,-14.2285773174201,-10.2722476974625,53.6082890840903,-7.9202100615687,-21.6754266257843,4.52230778677769
2.44465882965312,-11.3047482710802,-30.2508253970998,2.90451416908948,-15.8712752700713,-14.1361065438054,-10.2742004436296,53.3337089445082,-7.86832631144922,-21.8250166881915,4.86930489135018
2.36394166283384,-11.2330003281632,-30.2352806784826,2.9047633245436,-15.7424569797219,-14.0527407933934,-10.2705204773238,53.0760593311174,-7.81401460632737,-21.9856853611328,5.2099443581167
2.2882257633987,-11.163655154334,-30.2210144082846,2.9051679592292,-15.6149225562487,-13.9777523845797,-10.2613841662133,52.8344889594731,-7.75740830518525,-22.1584332227536,5.54381111616921
2.21740125421709,-11.0965667389783,-30.2079632717935,2.90571010535079,-15.4889333983262,-13.9104250385429,-10.2470308508162,52.6080976057884,-7.6986804700246,-22.3440773857711,5.87052852890826
2.15127066765735,-11.0315859073529,-30.1960660253168,2.90637613824256,-15.3647378389348,-13.8500579361137,-10.2277561476426,52.3959484498482,-7.63803879742591,-22.5432366858124,6.18975702617989
2.08955895997293,-10.9685651550142,-30.1852644720459,2.90715601697536,-15.2425696769307,-13.7959694109254,-10.2039046020731,52.1970807833833,-7.57572071229556,-22.7563203261589,6.50119259362427
2.03192537580841,-10.9073631311657,-30.1755042345972,2.90804258666012,-15.1226470646892,-13.7475003689052,-10.1758619298918,52.0105230219941,-7.51198856395825,-22.9835201975463,6.80456517829142
1.97797659843322,-10.8478486613706,-30.166735295903,2.90903095135984,-15.0051717777142,-13.7040175164208,-10.1440470975042,51.8353059633074,-7.44712483791866,-23.2248069642924,7.09963698738902
1.92728055555309,-10.7899042210135,-30.1589123073325,2.91011792567406,-14.8903288839438,-13.664916456752,-10.1089044879415,51.6704762254313,-7.3814272874374,-23.4799298289074,7.38620058947166
1.87938025885557,-10.7334287960414,-30.1519946916937,2.91130157207564,-14.7782868148741,-13.6296246862769,-10.0708963827043,51.5151097781483,-7.31520389177787,-23.7484196919244,7.66407669575383
1.83380713576128,-10.678340091986,-30.1459465889464,2.91258083005088,-14.6691978225908,-13.597604497478,-10.0304959581379,51.3683254500465,-7.24876755652652,-24.029595267799,7.93311150843431
1.79009344978115,-10.6245760741137,-30.1407367020251,2.91395524221608,-14.5631987897025,-13.5683557778228,-9.98818095091018,51.2292982646683,-7.18243048714829,-24.3225716553342,8.193173564442
1.7477835791111,-10.5720958410968,-30.1363381023905,2.91542478154716,-14.4604123450267,-13.5414186788948,-9.94442809457692,51.0972724312064,-7.11649820089304,-24.6262709272251,8.44415006602928
1.70644410725958,-10.5208798522885,-30.1327280520798,2.91698978196365,-14.3609482279419,-13.5163761172257,-9.89970837508442,50.9715737894812,-7.05126320621871,-24.9394344870185,8.6859427652386
1.66567285354435,-10.4709295442984,-30.1298878918485,2.91865097131627,-14.2649048379226,-13.4928560580426,-9.85448310554127,50.8516214835874,-6.98699847292445,-25.2606371727689,8.91846354739123
1.62510712096997,-10.4222663857546,-30.1278030347282,2.92040960162042,-14.1723709002181,-13.4705335270475,-9.80920078535736,50.7369386153769,-6.9239509225121,-25.5883032681358,9.14162992562406
1.58443155800912,-10.3749304300943,-30.1264630922387,2.92226766714879,-14.0834271717493,-13.4491322943012,-9.76429468611354,50.6271616122664,-6.86233525779494,-25.9207246444778,9.35536070062555
1.54338611981015,-10.3289784355971,-30.1258621465233,2.92422819775552,-13.9981481040435,-13.4284261785632,-9.72018109240407,50.5220480386508,-6.80232849529348,-26.2560811929066,9.55957205279638
1.50177467841089,-10.2844816297964,-30.1259991649462,2.92629561238099,-13.9166033763127,-13.4082399296537,-9.67725811571635,50.4214825905903,-6.74406554790496,-26.5924635627138,9.75417432608283
1.45947487658667,-10.2415232011908,-30.1268785340573,2.9284761145734,-13.8388592156602,-13.3884496598551,-9.63590499027302,50.3254810426825,-6.68763613089482,-26.9278980734477,9.93906974567926
1.41644984819125,-10.2001956042275,-30.1285106683203,2.93077810658345,-13.7649794345263,-13.3689828128768,-9.59648175222851,50.234191966091,-6.63308314837404,-27.260373557863,10.1141512905975
1.3727624314249,-10.1605977637071,-30.1309126281543,2.93321259122115,-13.695026136225,-13.3498176798732,-9.5593292011408,50.147896106067,-6.58040258404957,-27.5878698221377,10.2793029107171
