Finger Velocity,Scap_X,Scap_Y,Scap_Z,Shoulder horiz abd-adduction,Shoulder flexion-extension,Shoulder internal-external rotation,elbow flexion-extension,forearm pronation-supination,wrist flexion-extension,wrist radial-ulnar deviation
1.0152269499554,-8.00014339676489,-28.6711623142904,5.83073322722572,-24.4122948977529,-37.2658992080822,-7.48827057102432,78.2389305209069,-29.7440533331308,15.4200610067117,-31.3692017705523
1.1870642206869,-8.02172587536172,-28.6525775023952,5.83614560467995,-24.4353138463673,-37.2075496389219,-7.49518512016335,78.1834274364249,-29.6108285701414,15.1483387154911,-31.0977322982326
1.37065996414706,-8.04366158545711,-28.6332174406089,5.8432361257188,-24.4647609626518,-37.1435957264498,-7.50375420028265,78.1279619057581,-29.4585795362423,14.8090551864936,-30.7629043050009
1.56536619760486,-8.06572273011861,-28.6132383160295,5.8520124963841,-24.5010684435263,-37.0738750998587,-7.51387524252005,78.0733619338831,-29.2867180174032,14.3980544193633,-30.3611443865903
1.7703966689375,-8.08767190473841,-28.5928016832793,5.86245086323824,-24.5446090080478,-36.9982231204306,-7.52539686002824,78.0204716380725,-29.0948298375442,13.9121143057597,-29.8898214256085
1.98482613669875,-8.10926615731372,-28.5720710997637,5.87449453110482,-24.5956859684174,-36.916466784266,-7.5381177969241,77.9701294023265,-28.8826863503398,13.3491011736562,-29.3474002817988
2.20759310618735,-8.1302611747447,-28.5512087472345,5.88805353550049,-24.6545241168018,-36.8284184425991,-7.55178708737479,77.9231444208235,-28.6502526376135,12.7081014427211,-28.7335726920282
2.43750557528568,-8.15041546662214,-28.5303721173739,5.90300511253204,-24.7212616652688,-36.7338697082006,-7.56610551031759,77.8802722054092,-28.3976920563772,11.9895223251525,-28.0493567657028
2.67324954317098,-8.16949440770327,-28.5097108379329,5.91919507412625,-24.795943469922,-36.6325859487967,-7.58072838944747,77.8421897056231,-28.1253668497828,11.1951540956363,-27.2971569227576
2.91340011862641,-8.18727399341565,-28.4893637149139,5.93644005880568,-24.8785157540605,-36.5243017794995,-7.59526974719683,77.8094707407723,-27.8338346417082,10.3281877082035,-26.4807772906539
3.15643509003465,-8.20354416349128,-28.4694560642654,5.95453058975574,-24.9688225159856,-36.4087179495942,-7.60930777799194,77.7825624663745,-27.5238407638513,9.39318353205072,-25.6053835499555
3.40075081336083,-8.21811156154686,-28.4500974025036,5.9732348355842,-25.0666037647101,-36.2854999689825,-7.62239156217748,77.7617635875962,-27.196306500928,8.39598969199885,-24.6774109935951
3.64468025116452,-8.23080162516263,-28.4313795589448,5.99230293832697,-25.1714956734547,-36.1542787341274,-7.63404889695404,77.7472049890392,-26.8523134643186,7.34361176771704,-23.7044199938226
3.88651296226665,-8.24145993999427,-28.4133752625134,6.01147175066865,-25.2830326802645,-36.0146532968162,-7.64379507109544,77.7388333760433,-26.4930844048397,6.24403911122428,-22.6949038430524
4.12451680243484,-8.24995283740165,-28.3961372431375,6.03046981191869,-25.4006515022315,-35.8661957838117,-7.65114235444094,77.736398424064,-26.1199608517012,5.10603635632987,-21.6580576180192
4.35696105412253,-8.25616726118232,-28.3796978713982,6.04902239229313,-25.5236969712065,-35.7084583402679,-7.65560991715509,77.7394438203302,-25.7343780294505,3.93891135521789,-20.6035198300564
4.5821406599106,-8.26000996923248,-28.3640693403876,6.06685644976876,-25.6514295526233,-35.5409818523976,-7.65673385037489,77.7473024685689,-25.337837572842,2.75227238339067,-19.5411007294537
4.79840119145515,-8.26140616684361,-28.3492443712623,6.08370537184309,-25.7830343812378,-35.3633061147727,-7.6540769397008,77.7590960227493,-24.9318786379769,1.55578775532689,-18.4805119270606
5.00416414481302,-8.26029768912046,-28.3351974007192,6.09931340924195,-25.917631636969,-35.1749810474442,-7.64723784778681,77.7737388233085,-24.5180480933229,0.358959960363901,-17.4311113853557
5.19795211522522,-8.25664086177909,-28.3218861877866,6.11343974163887,-26.054288081985,-34.9755785369719,-7.63585938739767,77.7899462271601,-24.0978705561822,-0.829075744205821,-16.4016759357649
5.37841337091124,-8.25040417445488,-28.3092537619624,6.12586214108307,-26.1920295760764,-34.764704468088,-7.61963560562731,77.8062472446845,-23.6728191048457,-1.99972129069557,-15.4002106039653
5.54434531720112,-8.24156590068949,-28.2972306260815,6.13638021456711,-26.329854373801,-34.5420105214662,-7.59831744902327,77.8210013170211,-23.2442875310053,-3.14505056903645,-14.4338005988277
5.69471632037689,-8.23011179465828,-28.2857371246896,6.14481821298805,-26.4667469818821,-34.3072053346606,-7.57171683638836,77.8324189849583,-22.8135649943856,-4.25790835432371,-13.5085083137057
5.82868534584164,-8.21603298571484,-28.2746858908469,6.15102739220845,-26.6016923226466,-34.0600646589519,-7.53970903081214,77.8385861204378,-22.3818139018466,-5.33197529401818,-12.6293145167763
5.94561885863689,-8.19932417718999,-28.2639842903475,6.15488790738492,-26.7336899165542,-33.8004401945876,-7.50223327390416,77.8374913165155,-21.9500517594505,-6.36180265183454,-11.8001003568788
6.04510443694964,-8.17998223559042,-28.2535367919461,6.15631021850022,-26.8617677725231,-33.5282668465711,-7.45929171978072,77.827055963047,-21.5191376425142,-7.34282150383638,-11.023665015699
6.12696056240863,-8.15800523107051,-28.2432472050529,6.15523598550318,-26.9849956649109,-33.243568207219,-7.41094677789887,77.8051664750078,-21.0897638007849,-8.27133137113077,-10.3017727990535
6.19124207642462,-8.13339196114303,-28.2330207418961,6.1516384358418,-27.1024974827638,-32.9464601374473,-7.3573170341335,77.7697080905918,-20.6624527702104,-9.14447301321879,-9.63522309781199
6.23824083201698,-8.10614195901938,-28.2227658783534,6.14552219468914,-27.2134623589864,-32.6371523870025,-7.298571961196,77.7185996186364,-20.2375602058175,-9.96018949492787,-9.02393682296559
6.26848112885049,-8.07625595802046,-28.2123960052118,6.13692257797814,-27.3171543217307,-32.3159482657314,-7.23492565025395,77.649828489057,-19.8152834840688,-10.7171788992487,-8.46705344828874
6.28270960008276,-8.04373675666077,-28.2018308778119,6.12590435958371,-27.4129202552505,-31.9832424499085,-7.16662980050603,77.5614854439421,-19.3956759417199,-11.4148413659535,-7.96303350988646
6.2818793288125,-8.00859040788616,-28.1909978847151,6.11256003581516,-27.5001960118243,-31.6395170691677,-7.09396620245001,77.4517981988779,-18.9786664098271,-12.0532225547789,-7.5097622165941
6.26712811615337,-7.97082764247245,-28.179833163363,6.09700762291929,-27.5785105795895,-31.2853362578738,-7.01723895160732,77.3191634036845,-18.5640834602893,-12.6329551430137,-7.10465067404855
6.23975100930016,-7.9304654313022,-28.1682825919509,6.07938803710408,-27.6474882800592,-30.9213393658176,-6.93676663410518,77.1621762416543,-18.1516835232674,-13.1551995544204,-6.74473207240798
6.2011674324188,-7.88752859325563,-28.1563026817227,6.0598621212246,-27.7068490370048,-30.5482330176533,-6.8528747305659,76.9796570312721,-17.741181793824,-13.6215847878373,-6.42675097595509
6.15288354850349,-7.84205136274181,-28.143861383058,6.0386073956241,-27.756406818533,-30.1667822050676,-6.76588848544075,76.7706742379119,-17.3322846645993,-14.0341499689012,-6.14724454156661
6.09645081282894,-7.79407884075222,-28.1309388041666,6.01581461978094,-27.7960664029508,-29.7778005993597,-6.67612648070305,76.5345633653094,-16.9247223206444,-14.395287063722,-5.90261506982928
6.03342204455284,-7.7436682637091,-28.1175278266051,5.99168425402174,-27.8258186552636,-29.3821402839221,-6.58389513278589,76.2709412749211,-16.5182801157207,-14.7076850433882,-5.68919375862549
5.96530671523142,-7.69089003491507,-28.1036345902986,5.9664229062204,-27.8457345247691,-28.9806811210612,-6.48948429850155,75.9797155720703,-16.1128274101966,-14.9742756682234,-5.50329588401955
5.89352748916276,-7.63582847466934,-28.0892788134888,5.94023983881089,-27.8559579863768,-28.574319982266,-6.39316412890723,75.6610887989601,-15.708342681393,-15.1981809885999,-5.34126787486607
5.81938029467176,-7.57858225711389,-28.0744939100368,5.91334359924951,-27.856698151693,-28.1639600841401,-6.29518325101346,75.3155572855571,-15.3049339079403,-15.3826626528062,-5.19952688149215
5.7440002947476,-7.51926451372882,-28.05932686762,5.88593882475205,-27.8482207735304,-27.7505006820901,-6.19576829124549,74.9439046285623,-14.9028534633893,-15.5310731650161,-5.07459348823078
5.66833600169274,-7.4580025942256,-28.0438378554924,5.85822326201878,-27.8308393613014,-27.3348273763009,-6.09512469024141,74.5471898922643,-14.5025070068754,-15.6468093202806,-4.96311821797267
5.59313340598212,-7.39493748513972,-28.0280995393584,5.83038503680273,-27.804906115459,-26.9178032744927,-5.99343870213894,74.1267307485663,-14.1044561082365,-15.733268136013,-4.86190245019104
5.51893136281121,-7.33022289474343,-28.0121960928938,5.80260020706481,-27.7708028762605,-26.5002612310901,-5.89088042307551,73.6840818944113,-13.7094145807548,-15.7938056874978,-4.76791433694114
5.44606864539551,-7.26402401992078,-27.9962219091936,5.77503063486809,-27.7289322645837,-26.0829973432574,-5.78760765187767,73.2210092017908,-13.3182387122373,-15.8316993181999,-4.67830026912777
5.37470212187659,-7.19651601641168,-27.9802800292606,5.74782221216935,-27.6797091703536,-25.6667658324526,-5.68377035428864,72.7394601657802,-12.931911778184,-15.8501137083301,-4.59039243310785
5.30483456412222,-7.12788219880048,-27.9644803174124,5.72110347127037,-27.6235527188764,-25.2522753795343,-5.57951548480129,72.2415313157877,-12.5515233854098,-15.852071238187,-4.50171300812455
5.23634978045092,-7.05831200159947,-27.9489374247775,5.69498460165461,-27.560878819109,-24.8401869183914,-5.47499191539045,71.7294333402448,-12.1782443372786,-15.840426988832,-4.40997557611849
5.1690521885029,-6.98799873826636,-27.9337685917358,5.66955688349767,-27.4920933727697,-24.4311128326727,-5.37035522330599,71.2054547396346,-11.8132978437424,-15.8178485958742,-4.31308433381434
5.10270767436241,-6.91713720058211,-27.9190913479914,5.64489253708117,-27.4175862013856,-24.0256174445526,-5.2657721005757,70.6719248601552,-11.4579280238898,-15.7868010160697,-4.20913170709136
5.03708263188294,-6.84592114529272,-27.9050211745601,5.62104497810568,-27.3377257316062,-23.624218636338,-5.16142417041041,70.1311771661452,-11.1133667578694,-15.7495360886025,-4.09639496363779
4.97197840561369,-6.77454071707667,-27.8916691951255,5.5980494611087,-27.2528544687628,-23.2273904092142,-5.05751103186978,69.5855135847255,-10.7808000240811,-15.7080866028016,-3.97333238597965
4.90725890230239,-6.70317985632256,-27.8791399654644,5.57592408539372,-27.1632852857541,-22.8355661595603,-4.95425240016225,69.0371707066593,-10.461334889987,-15.6642644608897,-3.83857948835024
4.84286980729205,-6.63201373772853,-27.8675294298344,5.5546711287721,-27.0692985578142,-22.4491424407395,-4.85188926207989,68.488288561483,-10.1559683004512,-15.6196624637111,-3.6909456445648
4.77884856606651,-6.56120628334426,-27.8569231119229,5.53427866384316,-26.9711401794088,-22.0684829788359,-4.75068402228211,67.9408826106482,-9.86555872654681,-15.5756592310011,-3.52941136710398
4.71532500708727,-6.49090779344993,-27.8473946030596,5.51472240070442,-26.8690205025364,-21.69392272737,-4.65091967019962,67.3968195233471,-9.59080160594198,-15.5334267712597,-3.35312636108948
4.65251314895097,-6.42125274149723,-27.8390044002329,5.4959676906029,-26.7631142331087,-21.3257717757663,-4.5528980395004,66.8577972136162,-9.33220932700647,-15.4939402326119,-3.16140837241815
4.59069532781648,-6.35235778433922,-27.831799131951,5.47797161819649,-26.6535613131048,-20.9643189611631,-4.45693725963744,66.3253295199458,-9.09009628704691,-15.4579893942676,-2.9537427524475
4.53020028341942,-6.28432004405533,-27.8258111943422,5.46068510631223,-26.5404688009775,-20.609835067226,-4.3633685173079,65.8007357982325,-8.86456930488976,-15.4261914872714,-2.72978257474262
4.47137723750611,-6.21721572075717,-27.821058806085,5.44405495731618,-26.423913740962,-20.2625755271009,-4.2725322540468,65.2851355765399,-8.65552341650609,-15.3990049515998,-2.48934906791895
4.41456826566725,-6.1510990957506,-27.8175464792788,5.42802576077107,-26.3039469831523,-19.9227825828624,-4.1847739155454,64.7794482872975,-8.46264285868726,-15.376743747812,-2.23243207484388
4.36008137492864,-6.08600198110851,-27.8152658917648,5.41254160872659,-26.1805978823033,-19.5906868901112,-4.10043934050754,64.2843979509739,-8.28540686563616,-15.3595918585369,-1.9591902136881
4.30816662674014,-6.02193366471128,-27.8141971316544,5.39754757774817,-26.0538797687732,-19.2665085898402,-4.01986985280325,63.8005225395992,-8.12309976751038,-15.3476176475852,-1.66995040339658
4.25899736866968,-5.95888138830973,-27.8143102663435,5.38299095917721,-25.9237960534479,-18.9504578963919,-3.9433971167265,63.3281876075988,-7.97482478788548,-15.3407877970657,-1.36520642674119
4.21265815901052,-5.89681138010337,-27.8155671684692,5.36882224210527,-25.7903467998474,-18.6427352672191,-3.87133782589366,62.8676036496663,-7.83952089206495,-15.3389806178184,-1.0456162357746
4.16914031704221,-5.83567044438361,-27.817923513399,5.35499587224315,-25.6535355705823,-18.3435312229932,-3.80398831132858,62.4188465346198,-7.71598203691868,-15.3419986171833,-0.711997753595655
4.12834527015542,-5.77538809140405,-27.8213308493327,5.34147082187733,-25.5133763357579,-18.0530258730091,-3.74161917467795,61.981880272686,-7.6028782036008,-15.3495802844353,-0.365322993000424
4.09009508473336,-5.71587917256278,-27.8257386331184,5.32821101162835,-25.3699002229987,-17.7713881765445,-3.68447007794408,61.5565813065148,-7.498777650263,-15.3614110926275,-0.00671039570151625
4.05414885741188,-5.6570469702399,-27.8310961226158,5.31518562404776,-25.2231618937222,-17.4987749479892,-3.6327448370272,61.1427634792696,-7.40216990610845,-15.3771337184887,0.362584617085619
4.02022309401274,-5.59878667895381,-27.8373540199106,5.30236934216486,-25.0732453463171,-17.2353296019584,-3.58660695777153,60.7402028296249,-7.31148914137819,-15.3963574757935,0.74118082080255
3.98801387472246,-5.54098920488258,-27.8444657696354,5.28974253412517,-24.9202689719435,-16.981180636708,-3.5461757220142,60.3486613933225,-7.22513767694724,-15.4186669637329,1.12758398647786
3.95721851881908,-5.48354520296546,-27.8523884342018,5.2772913909003,-24.7643897197597,-16.7364398672415,-3.51152289230674,59.9679092506922,-7.14150951870008,-15.443629957959,1.52020118709917
3.92755460698297,-5.42634926269601,-27.8610830929807,5.26500801078585,-24.6058062614669,-16.5012004389781,-3.48267007184011,59.5977441441474,-7.05901389067223,-15.4708046237112,1.91735651184084
3.89877455334261,-5.36930414365164,-27.8705147441914,5.25289041421174,-24.4447610774318,-16.2755346734636,-3.45958673835684,59.2380080945637,-6.97609877677252,-15.4997462047888,2.31730812020978
3.87067438852201,-5.31232494954275,-27.8806517243435,5.24094246656611,-24.2815414177076,-16.0594918138947,-3.44218896883854,58.8886005669163,-6.89127445369214,-15.5300134097018,2.71826659281814
3.84309596366494,-5.25534311707223,-27.8914646974492,5.22917368594466,-24.1164791212605,-15.8530957472993,-3.43033888050521,58.549487869543,-6.80313691227706,-15.5611747318619,3.11841452870473
3.81592236563109,-5.19831008728475,-27.9029253004379,5.21759891663155,-23.9499493052392,-15.6563427838264,-3.42384482342153,58.2207086128733,-6.71039094120913,-15.5928148799435,3.51592729104962
3.78906690715744,-5.1412005270101,-27.9150045571954,5.20623785600795,-23.7823679617189,-15.4691995761797,-3.42246236248863,57.9023751959373,-6.61187251284614,-15.6245413735737,3.90899472143288
3.76245659234382,-5.08401497900246,-27.9276711877144,5.19511443042684,-23.614188520556,-15.2916012662279,-3.42589608041599,57.5946714247359,-6.50656999054229,-15.655991216009,4.29584354132875
3.73601143000422,-5.02678184018858,-27.940889940102,5.18425602381904,-23.4458974543027,-15.123449949665,-3.43380222288287,57.2978464880686,-6.39364358619023,-15.686837420277,4.67476004913534
3.70962134671487,-4.96955859409532,-27.9546200628148,5.17369257255593,-23.2780090165853,-14.9646135491063,-3.44579219751138,57.0122056173165,-6.2724424470079,-15.7167950571207,5.04411261660567
3.68312270686434,-4.91243225238356,-27.9688140142505,5.16345555133899,-23.1110592202858,-14.8149251773783,-3.46143692998365,56.7380978331531,-6.14251874583566,-15.7456264267614,5.40237341778913
3.65627654835474,-4.85551898957345,-27.98341647901,5.15357688427273,-22.9455991757612,-14.6741830560643,-3.48027206868324,56.4759012353428,-6.00363818563903,-15.7731449384506,5.74813880923783
3.62875056707941,-4.79896298316088,-27.9983637287462,5.14408781912995,-22.7821879201796,-14.5421510354688,-3.50180400855951,56.2260063285978,-5.85578640029986,-15.7992173042457,6.08014781371583
3.60010662452544,-4.74293449659103,-28.0135833359802,5.13501780144967,-22.621384874629,-14.4185597485551,-3.52551667638131,55.9887979073879,-5.6991708346427,-15.8237637115339,6.39729821382489
3.56979512800105,-4.68762726370509,-28.0289942260954,5.12639338185637,-22.4637420656209,-14.3031084253074,-3.55087898871661,55.7646360527825,-5.53421780873701,-15.8467557439438,6.69865982482902
3.53715708500651,-4.63325525038347,-28.0445070376528,5.11823718701095,-22.309796244703,-14.1954673909116,-3.57735286498539,55.5538368258818,-5.36156460474466,-15.8682119757738,6.98348459075914
3.50143402602591,-4.58004888280273,-28.0600247531626,5.11056698181334,-22.1600610384272,-14.0952812641144,-3.6044016506298,55.3566532694643,-5.18204655431297,-15.8881913408649,7.25121323197869
3.46178539703984,-4.52825084234171,-28.0754435594628,5.10339484754558,-22.0150192639777,-14.002172855794,-3.63149877777667,55.1732573432819,-4.99667925315925,-15.9067845303746,7.50147825821138
3.41731251294126,-4.47811153493313,-28.0906538972381,5.09672649773462,-21.8751155534857,-13.9157477405637,-3.65813646170442,55.0037234116313,-4.80663619040433,-15.9241037858764,7.73410325031406
3.36708778612798,-4.42988434793681,-28.1055416618955,5.09056075013639,-21.7407494400959,-13.8355994381378,-3.68383420207142,54.8480138711572,-4.61322225280314,-15.9402715299492,7.94909841672024
3.31018772489348,-4.38382081066786,-28.1199895220804,5.08488916833223,-21.6122690673068,-13.7613151017609,-3.70814683356805,54.7059674538131,-4.41784374360426,-15.9554083244287,8.14665255058508
3.24572813070466,-4.3401657753753,-28.1338783265455,5.07969588003982,-21.4899656858457,-13.6924815752261,-3.73067186069789,54.5772906696363,-4.22197573326736,-15.9696206720722,8.32712164301352
3.17289998724314,-4.29915273305985,-28.1470885742248,5.07495757290082,-21.3740690978245,-13.6286916508187,-3.75105582223324,54.4615527715612,-4.02712772009171,-15.9829891922048,8.49101453256394
3.09100468999517,-4.26099937232408,-28.1595019262546,5.07064366381629,-21.2647441975293,-13.5695503371478,-3.76899946268877,54.3581845336626,-3.83480870548762,-15.9955577169123,8.63897607898842
2.99948747337238,-4.22590347958215,-28.1710027424971,5.06671663567528,-21.1620887428919,-13.514680930553,-3.7842615396099,54.2664810394942,-3.64649286443386,-16.007323862172,8.77176842802833
2.89796811809551,-4.19403926672734,-28.1814796282771,5.06313253552024,-21.0661324714666,-13.4637306804776,-3.79666116553813,54.1856085833212,-3.46358700070752,-16.0182316026091,8.89025097344742
2.78626823974364,-4.16555419953326,-28.1908269787115,5.05984162922012,-20.9768376502852,-13.4163758472818,-3.80607866796663,54.1146156961445,-3.28740090569456,-16.028166309192,8.99535961757091
2.664434655808,-4.14056638780375,-28.1989465079496,5.05678920645865,-20.8941011191496,-13.3723259692935,-3.81245504180536,54.0524482201347,-3.11912158691496,-16.036952609103,9.0880858847515
2.53275849925898,-4.11916258658559,-28.205748749214,5.05391652394114,-20.8177578464317,-13.3313271883097,-3.81579015757421,53.9979682685819,-2.95979211182119,-16.0443553135378,9.16945636090534
2.39178989572625,-4.10139684577717,-28.21115450916,5.05116186507279,-20.7475859607797,-13.2931645325039,-3.81613996426521,53.9499768235613,-2.81029554859602,-16.0500835417404,9.24051282847174
