Finger Velocity,Scap_X,Scap_Y,Scap_Z,Shoulder horiz abd-adduction,Shoulder flexion-extension,Shoulder internal-external rotation,elbow flexion-extension,forearm pronation-supination,wrist flexion-extension,wrist radial-ulnar deviation
0.353284385524139,-9.83128812108403,-32.0569747482014,9.55784237102828,-21.8540708627811,-40.7952838615079,-13.308998640983,85.0622416398649,-28.0035936302552,15.697222209023,-36.7458686280366
0.428027982678113,-9.85924167249974,-32.0849040079708,9.4977778646563,-21.8230607450415,-40.7407466712656,-13.2525589218512,85.0828625641536,-27.8373787747817,15.9808996923617,-36.9410431249745
0.563533900451299,-9.8915409476496,-32.1116842555915,9.43011847332182,-21.7891320934105,-40.6760870374625,-13.1910109039504,85.1089856612101,-27.6562283319332,16.2724474039428,-37.1365075386273
0.743762061086456,-9.92832386853763,-32.1367564662724,9.35459890935209,-21.7520593871554,-40.600126839243,-13.1244801663836,85.1405222432937,-27.4610182374976,16.5679345643448,-37.3288882046171
0.957746142045491,-9.96968169250321,-32.1595493738334,9.27099779035454,-21.7115776281942,-40.5116384431273,-13.0531285872298,85.1772340563502,-27.2528772405491,16.8633525635805,-37.5148937975203
1.19923049370045,-10.0156547985751,-32.1794886675919,9.17913997785313,-21.6673782256333,-40.4093530561363,-12.9771472947713,85.218717265909,-27.0331713511408,17.1547342726311,-37.6914315115916
1.46427689731494,-10.0662292230429,-32.1960063348353,9.07889830842509,-21.6191059058496,-40.2919705922187,-12.896748684677,85.2643881881803,-26.8034817452457,17.4382658810196,-37.8557094074643
1.74992596697203,-10.1213340202764,-32.2085498832415,8.97019476440076,-21.5663569945281,-40.1581710787318,-12.8121578642863,85.3134710679826,-26.5655766132419,17.7103853237924,-38.0053184396476
2.05358119668731,-10.1808394944384,-32.2165911885171,8.85300115450116,-21.5086794003629,-40.0066275860008,-12.7236039409364,85.3649881401909,-26.3213776826768,17.9678629636208,-38.1382896689756
2.37273228928241,-10.2445563166495,-32.2196347404836,8.7273393920255,-21.4455745817788,-39.8360206044513,-12.6313116055691,85.417752143133,-26.0729223617218,18.2078619645845,-38.2531244362823
2.70483429048211,-10.3122355139413,-32.2172251021632,8.59328146649449,-21.3765016923484,-39.6450537249462,-12.5354934684166,85.4703613843984,-25.8223226266036,18.4279775003956,-38.3487975480536
3.04726237081555,-10.3835692932259,-32.2089534439963,8.45094920488628,-21.300883982277,-39.432470403475,-12.436343576835,85.5211973956701,-25.5717218988902,18.6262554225979,-38.4247355656603
3.3973063246979,-10.4581926468768,-32.1944630616806,8.30051391472204,-21.2181173971476,-39.1970715142056,-12.334032488455,85.56842516098,-25.3232512105263,18.8011921933325,-38.4807739315379
3.75218770102185,-10.5356856769781,-32.1734538263321,8.14219599710957,-21.1275811776214,-38.9377333193543,-12.2287041943999,85.6099958723079,-25.0789859315006,18.9517187405224,-38.5170978185887
4.10909080423235,-10.6155765723527,-32.1456855474276,7.97626461438137,-21.0286501374032,-38.6534254184038,-12.1204750984695,85.6436521638193,-24.8409042500836,19.0771714141915,-38.5341722135804
4.46520264143438,-10.6973451740281,-32.1109802509323,7.80303749177118,-20.9207081910254,-38.3432281922661,-12.0094351648484,85.6669357991627,-24.6108484717084,19.1772534005195,-38.5326668330779
4.81775872460087,-10.7804270672385,-32.0692233866899,7.62288092159587,-20.803162625829,-38.0063492365568,-11.8956512473551,85.6771978258411,-24.390490061111,19.251989805017,-38.5133810619653
5.1640925329132,-10.8642181373562,-32.0203639821584,7.4362100181695,-20.6754585680041,-37.6421382844455,-11.779172503463,85.6716112536454,-24.1812992079431,19.3016792256658,-38.4771733019105
5.50168687654049,-10.9480795203578,-31.9644137573073,7.24348924100746,-20.5370930797564,-37.2501001530985,-11.6600376768508,85.6471863468225,-23.9845195593161,19.3268441106112,-38.424898063219
5.82822560327363,-11.0313428653561,-31.9014452118498,7.04523316447778,-20.3876283393768,-36.8299053067282,-11.5382839102931,85.6007886307368,-23.8011486425133,19.3281816342936,-38.357352984681
6.14164416174399,-11.1133158103456,-31.831588695035,6.84200742780845,-20.2267033940902,-36.3813977099152,-11.4139566382001,85.5291596960057,-23.6319243997903,19.3065163038821,-38.2752368666419
6.44017753362933,-11.1932875575428,-31.7550284738162,6.63442975507989,-20.0540440364022,-35.9045997403758,-11.2871200185549,85.428940834041,-23.4773181642346,19.2627550704954,-38.1791188566347
6.72240400049254,-11.2705344264748,-31.6719978295545,6.42317089498227,-19.8694704393145,-35.3997140333264,-11.1578673093065,85.296699459787,-23.3375343004805,19.197845403756,-38.0694181873638
6.98728313518768,-11.3443252646868,-31.5827732361743,6.20895529747927,-19.6729022900076,-34.86712223588,-11.026330580575,85.1289581753925,-23.2125165991854,19.1127366253975,-37.9463933505955
7.23418631597809,-11.4139266082414,-31.487667701897,5.99256131984601,-19.4643612732684,-34.3073807584992,-10.8926891790052,84.9222262096865,-23.1019613447628,19.0083447827278,-37.8101392932684
7.4629179685066,-11.4786075048146,-31.3870233901862,5.77482073856143,-19.2439708625386,-33.721213719477,-10.7571764177403,84.6730328433855,-23.0053367767152,18.8855214153453,-37.660591119067
7.67372566792709,-11.5376439377952,-31.2812036710886,5.55661733889656,-19.0119534739202,-33.1095033817793,-10.6200840514887,84.3779623144784,-22.9219084438552,18.7450266464596,-37.4975328251652
7.86729721261371,-11.5903228177321,-31.1705847883954,5.33888436415156,-18.7686251311669,-32.473278470008,-10.4817642123056,84.0336896081165,-22.8507697197481,18.5875070546949,-37.3206097443301
8.04474285672426,-11.635945536221,-31.0555473561339,5.12260063292864,-18.5143878831159,-31.8137008198639,-10.3426286280957,83.6370164814199,-22.7908765263212,18.4134787403919,-37.1293435504041
8.20756111956524,-11.6738311054529,-30.9364679149027,4.90878517494382,-18.2497203096479,-31.1320508494707,-10.203145114171,83.1849070615822,-22.741085124995,18.2233159235916,-36.9231488999973
8.35758704221503,-11.703318932611,-30.8137107816842,4.69849029092727,-17.9751665412775,-30.4297123540309,-10.0638314992634,82.674522387705,-22.7001917030043,18.0172453403974,-36.7013510218296
8.49692250118286,-11.7237713007161,-30.6876204163249,4.49279300431381,-17.6913242873829,-29.7081571195634,-9.92524729752014,82.1032533399706,-22.6669724211282,17.7953466469837,-36.4632038139994
8.62784925866869,-11.7345756453651,-30.5585145065145,4.29278493396107,-17.3988324036544,-28.9689298346852,-9.7879835511113,81.4687515048141,-22.6402226026055,17.5575589650704,-36.2079082370228
8.75272682497435,-11.7351467291072,-30.4266779446224,4.09956067232057,-17.0983585216212,-28.2136337538679,-9.65265133987343,80.7689576491322,-22.6187938259366,17.3036935730423,-35.9346309663588
8.87387884998645,-11.7249288211689,-30.2923578378846,3.91420480062535,-16.7905872135259,-27.4439175281945,-9.51986948564594,80.0021276071718,-22.6016278185822,17.0334525487484,-35.6425233790071
8.99347347009553,-11.7033979898073,-30.1557596608796,3.73777771318039,-16.4762090834249,-26.661463564962,-9.39025197058863,79.166855506563,-22.5877862077411,16.7464529157547,-35.3307409967759
9.11340454376893,-11.6700646086943,-30.017044627206,3.57130046040865,-16.1559110736255,-25.8679782018613,-9.2643955471794,78.262094361265,-22.5764753455591,16.4422555649238,-34.998463502953
9.23518168791889,-11.6244761690639,-29.8763283264707,3.41573885933717,-15.830368170916,-25.0651838837834,-9.14286795777853,77.2871741293512,-22.5670655778551,16.1203979517211,-34.6449153994256
9.35983717402854,-11.566220476962,-29.7336806441362,3.27198716314528,-15.5002366050918,-24.2548134119193,-9.02619711978059,76.2418173682774,-22.5591044653631,15.7804293319936,-34.2693872839611
9.48785687107997,-11.4949292991892,-29.5891269561979,3.14085162760258,-15.1661485606905,-23.4386062019738,-8.91486157651749,75.126152618527,-22.5523235983144,15.4219471142697,-33.8712576072865
9.61914054525242,-11.4102825001444,-29.4426505675707,3.02303435931088,-14.8287083689966,-22.6183063522475,-8.80928246243929,73.9407256092566,-22.5466387771245,15.0446328009669,-33.450014631676
9.75299418795812,-11.3120126818441,-29.294196341387,2.91911787530136,-14.4884901045158,-21.7956621954601,-8.7098171764109,72.6865083101592,-22.5421434724676,14.6482859943914,-33.0052781800813
9.88815407270048,-11.1999102988524,-29.1436754449113,2.82955084116386,-14.1460364740117,-20.9724269016572,-8.61675489240155,71.364905758475,-22.5390956338544,14.2328550654379,-32.5368206521334
10.022839439647,-11.0738291697954,-28.9909711143571,2.7546354802009,-13.801858857187,-20.1503596233564,-8.53031396032497,69.9777604791908,-22.5378980923181,13.7984632927432,-32.0445866917675
10.1548285144384,-10.9336922529951,-28.8359453129303,2.69451715391327,-13.4564383394984,-19.3312266352813,-8.45064116412634,68.527354205086,-22.5390730014612,13.3454295156839,-31.5287108183784
10.2815512537616,-10.7794975033928,-28.6784461235023,2.64917659945422,-13.1102275703937,-18.5168019222189,-8.37781271488303,67.0164065076071,-22.5432309809556,12.8742825515643,-30.9895322811946
10.400191829917,-10.6113235882795,-28.518315683175,2.6184252674644,-12.763653277922,-17.7088667093861,-8.3118367694926,65.4480698799296,-22.5510358694066,12.3857687993853,-30.4276063747368
10.5077942883279,-10.4293352151209,-28.3553984386858,2.60190412919851,-12.4171192634426,-16.9092075070541,-8.25265718506027,63.8259207731364,-22.5631662586133,11.8808526311497,-29.8437114783803
10.6013657902272,-10.2337878183843,-28.1895494860496,2.59908621292318,-12.0710096853723,-16.1196123469522,-8.20015814980804,62.1539460763901,-22.5802752522953,11.3607094026833,-29.2388511681508
10.6779731126793,-10.0250313636151,-28.0206427583593,2.60928298984252,-11.7256924249662,-15.3418650096976,-8.15416928053416,60.4365245547173,-22.6029501356597,10.826711210031,-28.6142508953474
10.7348293813319,-9.80351305366457,-27.8485788408071,2.63165456975835,-11.3815223188294,-14.5777371676949,-8.11447075580252,58.67840281506,-22.6316738195439,10.2804058454033,-27.9713489262188
10.7693691911694,-9.56977876073636,-27.6732922169644,2.6652235007578,-11.0388440478899,-13.8289784882498,-8.08079807464443,56.8846654617066,-22.6667900035267,9.72348971885462,-27.3117814719649
10.7793112376002,-9.3244730558864,-27.494757779327,2.7088918101175,-10.6979944917521,-13.0973048543171,-8.05284609733234,55.0606992258215,-22.7084739668234,9.15777576076971,-26.6373621827353
10.7627083088075,-9.06833776138278,-27.3129964657431,2.76146078819529,-10.3593043869135,-12.3843849658737,-8.03027213351533,53.2121510140596,-22.756710732511,8.58515747633423,-25.9500564113029
10.7179849973389,-8.80220900589776,-27.128079910422,2.82165291334872,-10.0230991635074,-11.6918256821815,-8.01269798511825,51.3448800250313,-22.8112820515312,8.00757038287875,-25.2519508633629
10.6439638133938,-8.5270128119306,-26.9401340251708,2.88813524995234,-9.68969887936952,-11.0211565488132,-7.99971101602582,49.4649043349714,-22.8717632173053,7.42695205045374,-24.545219442584
10.5398805696348,-8.24375928466632,-26.7493414547242,2.95954362511812,-9.35941722596922,-10.3738140163935,-7.99086449190028,47.5783426513736,-22.9375301689689,6.84520193349513,-23.8320862725843
10.4053899998802,-7.95353550031506,-26.5559428792211,3.03450690014503,-9.03255964644765,-9.75112589578393,-7.98567759280512,45.6913522575074,-23.0077767110548,6.26414216472488,-23.1147870351149
10.2405626061545,-7.65749721180922,-26.360237165522,3.11167069299075,-8.70942067264347,-9.15429660417446,-7.9836356327787,43.8100644919615,-23.0815410152884,5.68548047428713,-22.3955298932579
10.0458737256617,-7.35685950454357,-26.162580395907,3.18971996806735,-8.3902806447764,-8.58439373572859,-7.98419111042839,41.9405193903925,-23.1577399210526,5.11077635114892,-21.6764573442418
9.8221857883942,-7.05288654776049,-25.9633838272241,3.26739998017275,-8.07540201901286,-8.04233643777157,-7.98676624699819,40.0886013257934,-23.2352089705763,4.54141143661289,-20.9596103367705
9.57072470770638,-6.74688059779821,-25.7631108553152,3.34353513537232,-7.76502549618132,-7.52888599196113,-7.99075762631285,38.2599775873792,-23.3127456726972,3.97856492523194,-20.2468958746572
9.29305131581216,-6.44017041450613,-25.5622730773087,3.41704541181601,-7.45936622357054,-7.04463889719502,-7.99554342428832,36.4600418136011,-23.3891532520689,3.42319447568222,-19.5400591170669
8.99102872604493,-6.13409924965024,-25.3614255560356,3.48696006744846,-7.15861033223747,-6.59002263682857,-8.00049350814247,34.6938640306491,-23.4632821510858,2.87602284259104,-18.8406606979913
8.66678647412101,-5.83001255795325,-25.1611613943598,3.55242844849523,-6.86291207223339,-6.16529419532395,-8.00498241687687,32.9661487478744,-23.5340668170548,2.33753016183607,-18.1500596558789
8.32268226076581,-5.52924557184529,-24.9621057220766,3.61272780118979,-6.57239179414024,-5.77054127476304,-8.00840493649055,31.281202147209,-23.600555799519,1.80795158619331,-17.4694020307919
7.96126208671076,-5.23311087336932,-24.7649091859191,3.66726807792191,-6.2871349945772,-5.40568605569641,-8.01019369249185,29.6429089136268,-23.6619338405806,1.28727981623549,-16.799614903523
7.58521953708377,-4.94288609190515,-24.5702410174694,3.71559381557298,-6.00719259466712,-5.07049125722025,-8.00983793452991,28.0547187385618,-23.7175353782593,0.77527204417969,-16.1414054686271
7.19735493472863,-4.65980185413235,-24.3787817383212,3.75738324415939,-5.73258255507435,-4.76456818491741,-8.0069025113123,26.519642039839,-23.766849608373,0.271460932006261,-15.4952646730638
6.80053504057037,-4.38503011253558,-24.1912155505249,3.79244485241058,-5.46329285461343,-4.48738641373257,-8.00104594201044,25.0402540231667,-23.8095178880618,-0.224830567640643,-14.8614749943409
6.39765393388459,-4.11967297978417,-24.008222456319,3.82071168877004,-5.1992857810514,-4.23828473042198,-7.99203648128655,23.6187058900577,-23.8453247615138,-0.714470543926841,-14.2401220313005
5.99159565687491,-3.8647521968474,-23.8304701555993,3.84223370972806,-4.94050341153148,-4.0164829492509,-7.97976513788133,22.2567417873406,-23.8741842184843,-1.19849546788667,-13.6311096925598
5.58519915753356,-3.62119936161694,-23.6586057809548,3.85716850420328,-4.68687409961648,-3.82109421212856,-7.9642547301729,20.9557199919323,-23.8961229534978,-1.67808333892223,-13.0341788557638
5.18122601416855,-3.3898470419137,-23.493247545383,3.86577072757401,-4.43831973479216,-3.65113739405802,-7.94566423875763,19.7166368200454,-23.9112623856494,-2.15452248783641,-12.448929399775
4.78233137666153,-3.17142089167569,-23.334976394801,3.86838057633328,-4.1947634971321,-3.50554926257353,-7.92428793767483,18.5401518291226,-23.9198010384049,-2.62917605254458,-11.8748454576406
4.3910385165707,-2.96653288121132,-23.1843277755014,3.86541162468168,-3.95613779711685,-3.38319608872916,-7.90054903849535,17.4266130312997,-23.9219985875425,-3.10344239552643,-11.3113236132025
4.00971734439176,-2.77567574232103,-23.0417836453443,3.85733832493094,-3.72239207176034,-3.28288447528251,-7.8749878486548,16.3760810453461,-23.9181625014215,-3.57871200537398,-10.7577036163075
3.64056723202413,-2.5992187189973,-22.9077648753178,3.8446834430068,-3.49350010382129,-3.20337124934096,-7.84824471598598,15.3883513611267,-23.908637771715,-4.0563216565747,-10.2133010675334
3.28560447632354,-2.43740470585446,-22.7826242026357,3.82800566099873,-3.26946653905773,-3.14337235537755,-7.82103829984865,14.4629741559807,-23.893799816155,-4.537506774903,-9.6774414389968
2.94665475894719,-2.2903488488298,-22.666639905402,3.807887534856,-3.05033229500189,-3.10157077471445,-7.79413996643576,13.5992713676196,-23.8740502723076,-5.02335309286213,-9.14949473759142
2.62535099701264,-2.15803867390449,-22.5600103715805,3.7849239510586,-2.83617858214198,-3.07662358374492,-7.76834533433222,12.7963509772658,-23.8498151257981,-5.51474880441903,-8.6289100551567
2.3231370226381,-2.04033579714707,-22.4628497331032,3.7597111855544,-2.62712929493519,-3.06716833822054,-7.74444417732787,12.053118676322,-23.8215444418142,-6.01233854077932,-8.11524917466425
2.04127752472408,-1.93697925115234,-22.375184731089,3.7328366362614,-2.42335157796054,-3.07182902727427,-7.723190012313,11.3682872716311,-23.7897128881699,-6.5164805792809,-7.6082183172716
1.78087449259153,-1.84759043755784,-22.2969529700767,3.70486928115906,-2.22505443479836,-3.08922187191159,-7.70527075441204,10.7403843262121,-23.7548202341972,-7.02720877610653,-7.10769702465038
1.54288967707579,-1.77167968265759,-22.2280027054282,3.67635090867959,-2.0324853259662,-3.11796124419089,-7.69128180573576,10.1677586353836,-23.7173910677338,-7.54420080811535,-6.61376306675729
1.32817056639969,-1.70865433479915,-22.1680942842425,3.64778817338793,-1.8459247960562,-3.15666595619849,-7.68170285803158,9.64858620427561,-23.6779730836463,-8.06675442730266,-6.12671214728168
1.13747251603167,-1.65782830155679,-22.1169033215056,3.61964554330004,-1.66567927273471,-3.20396611986721,-7.67687953700368,9.18087642407388,-23.6371334535993,-8.59377353271539,-5.64707107725056
0.971459387862196,-1.6184328855864,-22.0740256384052,3.5923392208908,-1.49207228220141,-3.25851071868359,-7.6770108022997,8.76247914302706,-23.5954529796255,-9.12376586986797,-5.17560306082765
0.830646893408319,-1.58962874380275,-22.0389839234567,3.56623213370257,-1.32543441788172,-3.31897596391365,-7.68214274642768,8.39109329459801,-23.553517955746,-9.65485399226668,-4.71330385109312
0.715231134874304,-1.57051876656675,-22.0112360074741,3.54163009907913,-1.16609247346267,-3.38407442989467,-7.69216911477452,8.06427767647366,-23.5119099014168,-10.1848006975941,-4.26138783874161
0.624747888702857,-1.56016165129917,-21.990184577043,3.518779268124,-1.01435820208798,-3.4525648747256,-7.70683850980648,7.77946436578009,-23.4711935683018,-10.7110494477934,-3.82126365871986
0.557599668030154,-1.55758592638721,-21.9751880913412,3.49786494343234,-0.870517188875019,-3.5232625572129,-7.72576786420412,7.53397510340462,-23.4319038314193,-11.2307793274601,-3.39449960804648
