Finger Velocity,Scap_X,Scap_Y,Scap_Z,Shoulder horiz abd-adduction,Shoulder flexion-extension,Shoulder internal-external rotation,elbow flexion-extension,forearm pronation-supination,wrist flexion-extension,wrist radial-ulnar deviation
0.915269305501625,-11.8041760663506,-26.8895695028217,5.37428130179425,-19.8990173595235,-38.2508798751733,-14.9026014918777,76.5697702264561,-25.5691489966307,4.15505941923139,-25.3960649761063
1.21807710469662,-11.8148691521334,-26.8714155408313,5.36693634913301,-20.1338813934453,-38.0396518893477,-15.0334813440769,76.7340470701272,-24.9859279719563,4.45680447433044,-25.7034504546346
1.55616818956921,-11.8263319539504,-26.8520374096409,5.35741221620874,-20.3671542382204,-37.8161823906531,-15.1591061324233,76.9158570060886,-24.3979101776499,4.7488769166753,-25.9783476620962
1.92686181230369,-11.8385807169216,-26.8313575727529,5.34551940737682,-20.5979816628622,-37.5795532927597,-15.2790106885655,77.1156699316868,-23.8044950795182,5.02751031152604,-26.2157043801036
2.32810189315753,-11.8516188056997,-26.809304710256,5.3310710974356,-20.8255080984991,-37.3288235781267,-15.3928012836734,77.3338727633761,-23.2048934491149,5.28952760115188,-26.4112420143385
2.75793957225843,-11.8654349916082,-26.7858137710784,5.31388482817076,-21.0488785183659,-37.0630427443445,-15.5001531967026,77.570764216267,-22.5981631788794,5.53241031235067,-26.561536777277
3.21433108041201,-11.8800019239273,-26.7608259105154,5.29378437062938,-21.2672412204722,-36.7812649015554,-15.6008067572454,77.8265512906144,-21.9832505858418,5.75433010590967,-26.664061217996
3.69505820209327,-11.895274811195,-26.7342883201452,5.27060175508622,-21.4797517434407,-36.4825631654412,-15.6945621173509,78.1013474751454,-21.3590360880285,5.9541452396953,-26.7171889732647
4.1977031828373,-11.9111903382171,-26.7061539400425,5.24417946100306,-21.6855780598251,-36.166043992007,-15.7812730659706,78.3951724678088,-20.7243828617394,6.13136662652477,-26.7201677520246
4.71965098505393,-11.9276658444856,-26.6763810255193,5.21437274718711,-21.8839070893811,-35.830861122542,-15.8608402495562,78.7079530583997,-20.0781868438333,6.28609941656041,-26.6730668125762
5.25810685985529,-11.9445987878124,-26.6449325280719,5.18105208843431,-22.0739524702178,-35.4762288456275,-15.9332041911884,79.0395247566954,-19.4194262851019,6.41896652525986,-26.5767056452238
5.81012325748668,-11.9618665130103,-26.6117752473943,5.14410567078428,-22.2549634301161,-35.1014343300284,-15.9983384983683,79.3896337968117,-18.7472090187727,6.53102045936001,-26.4325704157947
6.37263272244632,-11.9793263401229,-26.5768787199145,5.10344188478201,-22.4262345221413,-34.7058488287822,-16.0562436124213,79.7579392786954,-18.0608156745021,6.62364932989878,-26.2427241108826
6.94248462988863,-11.9968159805894,-26.5402138277424,5.05899174539702,-22.5871159303146,-34.2889375941312,-16.1069413810237,80.1440153718164,-17.3597372163276,6.69848219009888,-26.0097153594742
7.51648421221442,-12.0141542835948,-26.5017511357279,5.01071115779939,-22.7370240072364,-33.850268373521,-16.150470633093,80.5473536540378,-16.6437053946886,6.75729791607453,-25.7364897100347
8.09143263528754,-12.0311423099511,-26.4614589869833,4.95858293946149,-22.8754516688516,-33.3895183828012,-16.1868838124751,80.9673657585853,-15.9127149745562,6.80194090995673,-25.4263058862917
8.66416706391072,-12.0475647282459,-26.4193014026841,4.90261850206437,-23.0019782414766,-32.9064796804731,-16.2162446034849,81.4033865473442,-15.1670369316638,6.83424605685024,-25.0826583956711
9.23159977769921,-12.0631915279635,-26.3752358380139,4.84285909395192,-23.1162783406195,-32.4010628996106,-16.2386263799601,81.8546780307344,-14.4072221826313,6.85597463874381,-24.7092069327842
9.79075549642837,-12.077780046403,-26.3292108455903,4.77937650782051,-23.2181293681894,-31.8732993306167,-16.2541112432893,82.3204342293544,-13.6340958069254,6.86876229505685,-24.3097123565949
10.3388061657114,-12.0910773087664,-26.2811636957975,4.71227316967165,-23.3074172462637,-31.323341385548,-16.262789384429,82.7997871329295,-12.8487421005911,6.87407960877781,-23.8879786281672
10.8731025478297,-12.1028226806141,-26.2310180038308,4.64168154238425,-23.3841400594263,-30.751461511201,-16.2647585054427,83.2918138644794,-12.0524811495008,6.87320545750466,-23.4477999482367
11.3912020621218,-12.1127508258976,-26.1786814162827,4.56776279835597,-23.4484093515376,-30.1580496513187,-16.2601230647357,83.795545103489,-11.2468379088239,6.86721285945204,-22.9929123834495
11.8908924251739,-12.1205949510639,-26.1240434133575,4.49070473903815,-23.5004489137802,-29.5436093862907,-16.2489931659152,84.309974759414,-10.4335050218665,6.85696664096357,-22.5269494584158
12.3702107521206,-12.1260902984079,-26.0669732830727,4.41071896388647,-23.5405910036701,-28.9087529010867,-16.2314829898121,84.8340708142345,-9.61430080813571,6.8431318485721,-22.053401451998
12.8274578946017,-12.1289778337109,-26.0073183194613,4.32803731591953,-23.5692700420602,-28.2541949488065,-16.2077087634105,85.366787170615,-8.79112399910549,6.82619143334917,-21.5755784085017
13.2612079057075,-12.129008057642,-25.9449022889683,4.24290765474455,-23.5870139381215,-27.5807459872034,-16.1777863535568,85.9070762533014,-7.96590689806057,6.80647136943759,-21.0965771066581
13.670312634594,-12.1259448591291,-25.8795242006423,4.15558903104899,-23.5944332821019,-26.8893046677284,-16.1418286528844,86.4539020201834,-7.14056868315273,6.78417106796201,-20.6192523813771
14.053901560345,-12.1195693221968,-25.8109574079419,4.06634635999575,-23.5922087171957,-26.1808498522702,-16.0999429812457,87.0062529545883,-6.31697055683871,6.75939676368151,-20.1461932425221
14.4113770731359,-12.109683395277,-25.7389490628093,3.97544471410399,-23.5810768553583,-25.4564323261769,-16.0522287549584,87.5631545464459,-5.49687436649448,6.7321955386085,-19.6797041857061
14.7424054981757,-12.0961133329956,-25.6632199356766,3.88314337713097,-23.5618151402174,-24.7171663712543,-15.9987756791354,88.1236807428317,-4.68190617491648,6.70258782848515,-19.2217919661759
15.0469042320329,-12.0787128237157,-25.5834646093107,3.78968981700407,-23.5352260849707,-23.964221358303,-15.9396626971046,88.6869638664726,-3.87352604205113,6.67059660948205,-18.7741579333372
15.3250254201643,-12.0573657208725,-25.4993520520191,3.69531374581466,-23.5021213237066,-23.1988135097869,-15.8749578853074,89.2522025611997,-3.07300499497364,6.63627191909362,-18.3381958230036
15.5771366478102,-12.0319883027323,-25.4105265783753,3.60022143623956,-23.4633059106629,-22.422197963894,-15.804719411203,89.8186674164582,-2.28140982700401,6.59970985191494,-17.9149947072602
15.8037991437584,-12.0025309947641,-25.3166092130533,3.50459045536256,-23.4195632845146,-21.6356612407522,-15.7289975789004,90.385704038783,-1.49959600366197,6.56106562950421,-17.5053466436676
16.0057440084733,-11.9689795021171,-25.2171994834122,3.40856495923573,-23.3716412834399,-20.8405141745672,-15.6478378823888,90.9527334672524,-0.728208593092075,6.52056073649369,-17.1097584693975
16.1838469762524,-11.9313553164806,-25.1118776756412,3.31225166711099,-23.3202395501312,-20.0380853385483,-15.5612848842171,91.5192499614749,0.03230919134861,6.47848442103124,-16.7284671524111
16.3391022076218,-11.889715580632,-25.0002075938603,3.2157166070922,-23.2659986059018,-19.2297149570187,-15.4693866542229,92.0848163120854,0.781700532038729,6.43519008090413,-16.3614581291085
16.4725955859606,-11.8441523135815,-24.8817398590836,3.11898269881187,-23.2094908045013,-18.4167492729884,-15.3721994497868,92.64905692412,1.51987355678161,6.39108722511744,-16.008486113868
16.585477964538,-11.7947910177961,-24.7560157752093,3.02202821568561,-23.1512133033413,-17.6005353213536,-15.2697922999808,93.2116489981411,2.24687499257041,6.346629829049,-15.6690979495583
16.678938780037,-11.7417887060258,-24.6225717741445,2.92478615055784,-23.0915831157593,-16.7824160489158,-15.1622511698778,93.7723121846358,2.96286012403934,6.30230197640966,-15.3426571665102
16.7541804192805,-11.6853313978723,-24.4809444349474,2.82714449594319,-23.0309342371236,-15.963725720807,-15.0496824251887,94.3307971182915,3.66806029882129,6.25860169541407,-15.0283700133835
16.8123936997215,-11.6256311453453,-24.330676055681,2.72894744450861,-22.9695167751527,-15.1457855534009,-14.932215385312,94.8868732521658,4.36274921234385,6.21602386418238,-14.7253127951041
16.8547348028838,-11.5629226521057,-24.1713207430235,2.62999751444225,-22.9074979649741,-14.3298995110436,-14.8100038336634,95.4403164075737,5.04720915984374,6.1750429939425,-14.4324603801034
16.8823039837641,-11.4974595521667,-24.0024509719578,2.53005860339481,-22.8449649150703,-13.5173501964866,-14.683226434041,95.9908964352022,5.72169837355817,6.13609660171361,-14.1487157116814
16.8961263673731,-11.4295104105315,-23.8236645527492,2.42885997065338,-22.7819289132498,-12.7093947539864,-14.5520860719808,96.5383653503803,6.38642047435612,6.09956976996469,-13.872940080663
16.8971351339853,-11.3593545030688,-23.6345919234685,2.326101138973,-22.7183311217597,-11.9072606901054,-14.4168082013359,97.082446264842,7.04149696921483,6.06578137895889,-13.6039838026995
16.8861573840892,-11.2872774299941,-23.434903664554,2.22145769355455,-22.6540495019093,-11.112141501858,-14.2776383320344,97.6228233917944,7.68694362764118,6.03497239694931,-13.3407168144984
16.8639029585724,-11.2135666195169,-23.2243181081956,2.11458793330464,-22.5889068189248,-10.3251919942753,-14.1348388422619,98.1591333535272,8.32265146553114,6.00729652467994,-13.0820585853284
16.8309564652186,-11.1385067849153,-23.0026088896756,2.00514029712742,-22.5226795743672,-9.54752318633999,-13.9886853316813,98.6909579760237,8.94837293087242,5.98281341528049,-12.8270066569224
16.7877727253874,-11.0623754065612,-22.7696122619371,1.89276144759401,-22.4551076927155,-8.78019675608688,-13.8394627508326,99.2178187185593,9.56371370042692,5.96148462746496,-12.5746630837211
16.7346758020283,-10.9854383179539,-22.5252339732136,1.77710485067057,-22.3859047591015,-8.02421905357119,-13.6874615449107,99.7391728587685,10.1681302642394,5.94317241374629,-12.3242580381134
16.6718617006563,-10.9079454819894,-22.2694554955389,1.65783964752625,-22.314768578824,-7.28053479106597,-13.5329740313152,100.254411528753,10.7609332270679,5.92764139229726,-12.075169866743
16.5994047491557,-10.8301270521906,-22.0023393917118,1.53465957520522,-22.2413918127361,-6.55002058377731,-13.3762911847814,100.762859667821,11.3412960286196,5.91456309694887,-11.8269409408622
16.5172675627943,-10.7521898232571,-21.724033618884,1.40729165956194,-22.1654724362474,-5.83347855571752,-13.217699937284,101.263777920134,11.9082685989988,5.90352333391379,-11.5792887437219
16.4253143919482,-10.674314182679,-21.4347745856272,1.27550438140381,-22.0867237719291,-5.13163024746896,-13.0574810264594,101.75636646372,12.460795328459,5.89403217829994,-11.3321117826518
16.323327537526,-10.5966516759128,-21.134888803287,1.13911501280936,-22.0048838555006,-4.44511107063921,-12.8959073614348,102.239770715266,12.9977366406708,5.88553630426969,-11.0854901015366
16.2110264095435,-10.5193232891155,-20.8247929995141,0.997995840940412,-21.9197239120881,-3.77446555107008,-12.7332428303735,102.713088815796,13.5178934124375,5.87743317302836,-10.8396803904545
16.0880887045028,-10.4424185356772,-20.5049925905356,0.852079040823784,-21.8310557439927,-3.12014359025824,-12.5697414551267,103.175380767162,14.0200334731767,5.86908645314467,-10.5951059150894
15.954173093446,-10.365995408065,-20.1760784384998,0.701360019415027,-21.7387378622044,-2.48249795313575,-12.40564680263,103.625679058918,14.5029194335629,5.85984197541924,-10.3523416836975
15.8089427499112,-10.2900812276072,-19.8387218530779,0.54589912128115,-21.6426802309104,-1.8617831626341,-12.2411915804299,104.063000601444,14.9653371205155,5.84904355261382,-10.1120954115148
15.6520890091564,-10.2146743930469,-19.4936678365804,0.385821654434756,-21.5428475375457,-1.25815594741155,-12.0765973624252,104.48635976445,15.4061239235141,5.8360481034985,-9.87518493259739
15.4833544388085,-10.1397469938136,-19.1417266231408,0.221316261124338,-21.4392609491901,-0.671677344319801,-11.9120744031248,104.894782303762,15.8241963794101,5.82023966983971,-9.64251276792496
15.3025546166793,-10.0652482168621,-18.7837636270171,0.0526317244476178,-21.3319983639902,-0.102316495660785,-11.7478215052958,105.287319933965,16.2185763382631,5.80104206321237,-9.41503861098265
15.1095979524441,-9.99110843953445,-18.4206879908643,-0.119927631272722,-21.2211932084339,0.450043897696631,-11.5840259109159,105.663065267961,16.5884150631937,5.77793000200097,-9.19375054753525
14.9045029535111,-9.91724386950355,-18.0534400037848,-0.296007723917522,-21.1070318680842,0.985600593673101,-11.4208631926878,106.021166808742,16.9330146312182,5.75043869571322,-8.97963587192523
14.687412418136,-9.84356157104926,-17.6829777277297,-0.475211405239111,-20.9897498731028,1.50462150295014,-11.2584971368439,106.360843659062,17.2518460333521,5.718171906049,-8.77365237345414
14.4586041365727,-9.76996470814927,-17.3102632172704,-0.657105753231958,-20.8696269870131,2.00743632425839,-11.0970796278856,106.681399616807,17.544563433227,5.68080855342588,-8.57670092665439
14.2184977895183,-9.69635783996171,-16.9362487376306,-0.841229652406531,-20.7469813616069,2.49442642067776,-10.9367505646581,106.982236342515,17.8110141434287,5.63810793709479,-8.38960013226598
13.9676578481513,-9.62265212133089,-16.5618633830316,-1.02710137012275,-20.6221629239673,2.96601425668389,-10.7776378432677,107.262865312833,18.0512440258157,5.58991360619047,-8.21306364296376
13.7067923977813,-9.54877028619969,-16.1880004774053,-1.21422588022527,-20.4955461613502,3.42265272889158,-10.6198574311062,107.5229183053,18.2654982143199,5.53615587974891,-8.04768069171463
13.436747924033,-9.47465131877175,-15.8155061051416,-1.40210174645882,-20.3675224723782,3.86481472733122,-10.4635135323327,107.762156194474,18.4542172739985,5.47685299175687,-7.89390022655617
13.1585002134952,-9.40025473626283,-15.4451690726914,-1.59022745593776,-20.2384922606576,4.29298324805365,-10.3086988114375,107.98047587746,18.618029113248,5.41211084929675,-7.75201893616682
12.8731416271761,-9.32556440926383,-15.0777125455712,-1.77810718625709,-20.1088569626116,4.70764233345113,-10.1554945928176,108.177915190263,18.7577371285338,5.34212142942702,-7.62217332742328
12.5818651025452,-9.2505918280976,-14.7137875417467,-1.96525609025325,-19.9790112301916,5.1092690449341,-10.0039708920542,108.354655725056,18.8743051698998,5.26715988068946,-7.50433590295808
12.285945326257,-9.17537869112892,-14.3539683924203,-2.15120526695709,-19.8493355295954,5.49832658558474,-9.85418608395342,108.511023509047,18.968839967954,5.18758042224304,-7.39831539278505
11.9867175928414,-9.09999865890143,-13.998750207148,-2.33550662252753,-19.7201894515403,5.87525860841396,-9.70618601529949,108.647487551663,19.0425716623858,5.10381114243293,-7.30376092032405
11.685554922773,-9.02455810899372,-13.6485483071884,-2.51773778446446,-19.5919060285762,6.24048468970007,-9.56000245609195,108.76465630425,19.096833030728,5.01634779804257,-7.22016992553942
11.3838440545343,-8.94919575687701,-13.3036995266003,-2.69750711853694,-19.4647873004346,6.59439692546479,-9.41565094359245,108.863272104363,19.1330379491776,4.92574672780063,-7.14689961254062
11.0829609477748,-8.87408107308204,-12.96446523202,-2.87445875116978,-19.339101265389,6.93735761223831,-9.27312826054143,108.944203696168,19.1526595340384,4.83261702583244,-7.08318162038187
10.7842464368905,-8.79941150445608,-12.6310358811806,-3.0482773805628,-19.2150802357971,7.26969798008027,-9.13240993430849,109.008436932431,19.1572083231601,4.73761215217097,-7.02813953418743
10.4889826551652,-8.72540857642745,-12.3035369207539,-3.21869260807141,-19.0929205156294,7.59171794023184,-8.99344819739306,109.057063776896,19.1482107814631,4.6414211683051,-6.9808087718233
10.1983708086436,-8.65231300774119,-11.9820358052163,-3.385482532372,-18.9727832526258,7.90368678803085,-8.85617081213236,109.091269743255,19.127188371142,4.54475977090509,-6.94015830911075
9.913510816847,-8.58037901150955,-11.666549895459,-3.54847638647895,-18.8547962830976,8.20584477218626,-8.72048107445571,109.112319930486,19.0956374176905,4.44836126038948,-6.90511364688652
9.63538325649261,-8.50986798515891,-11.3570549759068,-3.7075560335349,-18.7390567791028,8.49840541870222,-8.58625920830331,109.1215438435,19.0550100180805,4.35296754363997,-6.87458037494586
9.36483394850196,-8.44104180262577,-11.0534941220028,-3.86265617186978,-18.6256345285765,8.78155849051451,-8.45336524944798,109.120319221364,19.0066962668871,4.25932025757603,-6.84746765229388
9.10256142365454,-8.37415591880756,-10.7557866558846,-4.01376314811856,-18.5145757215416,9.05547346668702,-8.32164338981469,109.110055128935,18.9520081085937,4.16815210555417,-6.82271091087098
8.84910739582834,-8.30945249240508,-10.4638369372936,-4.16091234647708,-18.4059071528878,9.32030342347315,-8.19092761859988,109.092174594076,18.8921651430485,4.08017848720265,-6.79929311634164
8.60485027257626,-8.24715374140181,-10.1775427406201,-4.30418420643488,-18.2996407558724,9.5761891840188,-8.06104837385142,109.068097082262,18.8282826989047,3.99608946163979,-6.77626399113378
8.37000164965204,-8.18745576561526,-9.89680296599555,-4.4436990076759,-18.1957783444186,9.82326357448408,-7.93183982996712,109.039221090301,18.7613624369605,3.916542037967,-6.75275671607854
8.14460567667418,-8.13052308829206,-9.62152442729913,-4.5796106343975,-18.0943163904221,10.0616555904949,-7.80314741067664,109.006907117682,18.692285655112,3.84215276439817,-6.7280017660442
7.92854115039997,-8.07648416353655,-9.35162746149425,-4.71209957857172,-17.9952506332132,10.2914942536463,-7.67483513372814,108.972461250721,18.6218093604021,3.77349060103905,-6.70133768613285
7.72152619114123,-8.02542805774307,-9.0870501237376,-4.84136545757946,-17.8985803343973,10.5129119387772,-7.5467924420052,108.937119579642,18.5505650773507,3.71107010976406,-6.67221876096449
7.52312538304341,-7.97740244514082,-8.82775078613312,-4.96761931372103,-17.8043120422852,10.7260469883312,-7.41894023177055,108.902033660057,18.4790602832514,3.65534506065777,-6.64021966126159
7.33275930197428,-7.93241297317838,-8.57370905370972,-5.09107594637076,-17.7124627905505,10.9310454989097,-7.29123583857681,108.868257221416,18.4076822928117,3.60670260081503,-6.60503727196615
7.14971640369836,-7.89042397082103,-8.32492503470733,-5.21194651566642,-17.6230627083992,11.1280622517509,-7.16367678110241,108.836734312753,18.3367043579721,3.56545812019736,-6.56649001406774
6.97316728621,-7.85136041033003,-8.08141711766617,-5.33043165350115,-17.5361570579806,11.3172608403861,-7.03630309735685,108.808289060944,18.2662937175625,3.53185087674402,-6.52451505241451
6.80218136068529,-7.81511099681996,-7.84321849017032,-5.44671531184154,-17.4518077365989,11.4988131135544,-6.90919815166075,108.783617196009,18.1965213266822,3.50604034649588,-6.47916381386072
6.63574595589659,-7.78153223910613,-7.6103726875933,-5.56095955359524,-17.3700942876158,11.6728981031314,-6.78248785738231,108.763279467923,18.1273729971153,3.48810319943602,-6.43059621492033
6.47278783675867,-7.750453337994,-7.38292849542719,-5.67330044771344,-17.2911144584376,11.839700644176,-6.65633834218045,108.747697040152,18.0587616666436,3.47803081434856,-6.37907391792135
6.31219704077095,-7.72168171360756,-7.16093454256788,-5.78384518526734,-17.2149843270969,11.9994099041009,-6.53095216223843,108.737148901041,17.9905404794344,3.47572734578877,-6.32495281414622
6.1528528341836,-7.69500898672176,-6.94443390951523,-5.89267049493751,-17.1418379890514,12.1522180145624,-6.40656324633561,108.731771290042,17.9225163080496,3.48100849745799,-6.26867480354451
5.99365147485099,-7.67021723252081,-6.73345903795145,-5.99982239303647,-17.0718267600994,12.2983189554026,-6.28343082399617,108.731559098683,17.8544633033974,3.49360126406795,-6.21075884141134
