Finger Velocity,Scap_X,Scap_Y,Scap_Z,Shoulder horiz abd-adduction,Shoulder flexion-extension,Shoulder internal-external rotation,elbow flexion-extension,forearm pronation-supination,wrist flexion-extension,wrist radial-ulnar deviation
1.056816432987,-15.5960649644368,-9.82269048400627,4.51674287856477,-40.1118862387011,-38.4580487194867,-5.82069384807473,58.3492863856399,-14.9445392128833,-43.1400778966297,23.7588135390298
1.25713192573462,-15.5993574466708,-9.82677569133193,4.52349228481656,-40.1412778095282,-38.4304584870326,-5.8495408546543,58.3788719087493,-14.6677956528023,-42.8185093334501,23.4232252928506
1.47401380602779,-15.603301168414,-9.83198314388945,4.53099755656697,-40.174449746053,-38.4008117320652,-5.88041217723864,58.4155910568106,-14.3696409127088,-42.4356832653712,23.0233638983506
1.70621180687734,-15.607844690017,-9.83840292194028,4.53928123767327,-40.2113005301885,-38.3693522465122,-5.91311966776962,58.4598637901322,-14.0503461111205,-41.9929583805893,22.5597510353015
1.95233881925083,-15.6129187837436,-9.84611702806895,4.54836271889308,-40.2516579952157,-38.3363735877865,-5.94744462405086,58.5120374504041,-13.7103455745396,-41.493424059357,22.0344559403202
2.21083350957546,-15.6184362464866,-9.85519781471076,4.55825801389995,-40.2952765053234,-38.302216955774,-5.98314040642844,58.5723758001066,-13.3502386469023,-40.9419343384502,21.4511136086965
2.47994227465258,-15.6242920585676,-9.86570651906401,4.56897957617118,-40.3418351266345,-38.2672679890273,-6.01993551192231,58.6410490680176,-12.9707913652579,-40.3450566358287,20.8148631605949
2.75771407136589,-15.6303639095343,-9.87769192784504,4.58053612911579,-40.3909368239689,-38.2319525052231,-6.05753696747915,58.7181252207638,-12.5729379248119,-39.7109291231835,20.1322018840934
3.04200456688154,-15.636513105548,-9.89118918566938,4.59293247484027,-40.4421086898894,-38.1967312369077,-6.09563388394321,58.8035626308554,-12.1577817213894,-39.0490280671816,19.4107578133711
3.33048756546979,-15.6425858655302,-9.90621875225085,4.60616924383006,-40.494803185391,-38.1620936363805,-6.13390100157517,58.8972042596957,-11.7265956501231,-38.3698547278053,18.6589918596724
3.62067245164021,-15.6484150047865,-9.92278550603737,4.62024254839206,-40.5484003476847,-38.1285508425361,-6.17200205826572,58.9987734251302,-11.2808212635958,-37.6845593690808,17.8858483566755
3.90992679006263,-15.6538219951458,-9.94087798602073,4.63514350724886,-40.6022109026166,-38.0966279170249,-6.20959282512361,59.1078711810399,-10.8220663530887,-37.0045264075185,17.1003791659519
4.19550341812503,-15.6586193793492,-9.96046775981001,4.65085761804936,-40.6554802093526,-38.0668554664234,-6.246323682046,59.2239753031352,-10.352100510866,-36.3409486706642,16.311370098304
4.47457145053748,-15.6626135044306,-9.98150890499216,4.66736396888919,-40.7073929632534,-38.0397607715229,-6.28184164675566,59.3464408514704,-9.87284825510738,-35.7044195029341,15.5269986065011
4.74425063817468,-15.665607524446,-10.0039375921693,4.68463429720491,-40.7570785876151,-38.0158585469319,-6.31579182037759,59.4745022673222,-9.38637934762328,-35.1045689089276,14.7545483373052
5.00164851440064,-15.6674046072703,-10.0276717612141,4.70263192094628,-40.8036172537627,-37.995641457476,-6.34781826545372,59.6072769599262,-8.89489600377082,-34.5497645380943,14.0001996888547
5.24389973883108,-15.6678112635648,-10.0526108866479,4.72131057949146,-40.8460464801434,-37.979570524016,-6.37756438299543,59.7437703445024,-8.40071678056187,-34.0468910744828,13.2689070408116
5.46820702193526,-15.6666406999047,-10.0786358336822,4.74061322907929,-40.8833682731563,-37.968065559597,-6.4046728989549,59.8828823018098,-7.90625703159885,-33.6012137431478,12.5643641464573
5.67188299162527,-15.663716085217,-10.1056088136624,4.76047084031901,-40.9145567830648,-37.96149578612,-6.42878560344949,60.0234150345853,-7.41400593934938,-33.216324341138,11.8890506342491
5.85239235060902,-15.6588736126487,-10.1333734560205,4.78080124551234,-40.9385664544555,-37.960170791532,-6.44954300608142,60.1640822911015,-6.92650028185383,-32.8941622737302,11.2443457336097
6.00739367526531,-15.6519652388637,-10.1617550222903,4.80150808336066,-40.9543406509633,-37.9643319970114,-6.46658407790757,60.3035199063744,-6.44629526311854,-32.6350989561876,10.6306908789993
6.13478022702874,-15.6428609894289,-10.1905607953107,4.82247988993792,-40.960820729772,-37.9741448107124,-6.47954624727637,60.4402975774483,-5.97593292486492,-32.4380717093062,10.0477809853936
6.23271918946303,-15.6314507316772,-10.21958068293,4.84358938809488,-40.9569555352401,-37.9896916469147,-6.48806580562282,60.5729317456118,-5.51790884366564,-32.3007527288627,9.4947647634068
6.29968881223039,-15.6176453340793,-10.2485880800721,4.86469303151011,-40.9417112737367,-38.0109659858038,-6.49177886156527,60.6998994120961,-5.07463798091776,-32.219739449628,8.97043698759227
6.33451304146356,-15.6013771522629,-10.2773410358909,4.88563086213096,-40.9140817217614,-38.0378676398916,-6.49032295634854,60.8196526703748,-4.64842067583725,-32.1907542117126,8.4734095065356
6.3363933500799,-15.5825998050866,-10.3055837741126,4.90622673865927,-40.8730987042599,-38.07019937867,-6.48333941924103,60.9306337018832,-4.24140984070392,-32.2088431909325,8.00225229931446
6.30493765846228,-15.5612872286191,-10.3330486141847,4.92628898760355,-40.81784275821,-38.1076650442082,-6.47047649738613,61.0312899563344,-3.85558042359133,-32.2685667759614,7.55560039310796
6.24018646522777,-15.5374320208499,-10.3594583367674,4.9456115163495,-40.7474538679495,-38.1498692689917,-6.45139324232247,61.1200892246733,-3.49270214075875,-32.3641757303357,7.13222642618589
6.1426366024268,-15.5110431152262,-10.3845290270024,4.96397540986886,-40.661142125092,-38.1963188850749,-6.42576407887025,61.1955343113416,-3.15431634878901,-32.4897694169598,6.73108170974154
6.01326340655933,-15.4821428468417,-10.4079734114683,4.98115101094504,-40.5581981311907,-38.2464260896285,-6.39328392755096,61.2561770210143,-2.84171773423278,-32.6394340278918,6.35131066036688
5.85354257766404,-15.4507635015311,-10.4295046804711,4.9969004609782,-40.4380029312487,-38.299513402977,-6.35367370625641,61.3006311936723,-2.55594126225986,-32.8073601430747,5.99224447722434
5.66547360691749,-15.416943464575,-10.4488407588369,5.01098065705623,-40.3000372469992,-38.3548204180392,-6.30668600666526,61.327584554945,-2.29775456613694,-32.987940033626,5.65338008350927
5.45160740578006,-15.3807231102296,-10.465708959396,5.02314656276114,-40.1438897756228,-38.4115122931555,-6.25211072971876,61.3358092014847,-2.06765569934884,-33.1758459350712,5.33434986440284
5.21508165382042,-15.3421405931902,-10.4798509270964,5.03315479625551,-39.9692643351639,-38.4686898846131,-6.18978047362668,61.3241706153743,-1.86587593629596,-33.3660910818796,5.03488685671835
4.95966829656826,-15.301227716056,-10.4910277591121,5.0407674098721,-39.7759856726293,-38.5254013556405,-6.11957549583186,61.2916351922511,-1.69238711748268,-33.5540756656275,4.75478900623489
4.68983824543589,-15.2580060512148,-10.4990251670774,5.04575577014865,-39.5640038007441,-38.5806550428834,-6.04142811116845,61.2372763646859,-1.54691290453463,-33.7356200749614,4.49388508979037
4.41084782669742,-15.2124834903883,-10.503658532773,5.04790444498154,-39.333396786312,-38.633433316019,-5.95532643191911,61.1602794937486,-1.42894324132205,-33.9069877887919,4.25200402034951
4.12884799550218,-15.1646513805827,-10.5047777003412,5.047015004256,-39.0843719677499,-38.6827071351088,-5.86131739234776,61.0599457772698,-1.33775130196201,-34.0649001341299,4.02894857114248
3.85100687722277,-15.1144823831889,-10.5022713467059,5.04290964148662,-38.8172656256633,-38.7274509954159,-5.75950902821875,60.9356954740412,-1.27241223197697,-34.2065448396675,3.82447407785485
3.58561193706172,-15.0619291663307,-10.4960707757646,5.03543452691781,-38.5325411657184,-38.7666579510927,-5.65007200360551,60.7870707616461,-1.23182304494943,-34.3295799795618,3.6382723822806
3.34207102303968,-15.0069240116495,-10.4861529901964,5.02446280735433,-38.230785895702,-38.7993544255551,-5.5332403937701,60.6137385277648,-1.21472311845818,-34.4321345298234,3.46996112174228
3.13065942209487,-14.9493793866759,-10.4725429079489,5.00989717449662,-37.9127064878518,-38.8246145434541,-5.40931174100483,60.4154933425673,-1.21971483539172,-34.5128063296771,3.31907838622047
2.96179445069764,-14.8891895032622,-10.4553146095634,4.99167193185153,-37.5791232166907,-38.8415737513768,-5.27864639797108,60.1922607812085,-1.24528402872465,-34.5706577433329,3.18508269590794
2.84466517373768,-14.8262328518439,-10.4345915275253,4.96975450084691,-37.2309630590195,-38.8494415262238,-5.14166616231013,59.9441011718668,-1.28981999266714,-34.605208804458,3.06735814472954
2.78535483499737,-14.7603756709619,-10.4105455189377,4.94414631946922,-36.8692517429382,-38.8475129978785,-4.99885219148798,59.67121374688,-1.35163490792358,-34.6164271904689,2.96522438780347
2.78513391121725,-14.6914762815209,-10.3833947971049,4.91488310073197,-36.4951048381581,-38.8351793346249,-4.8507421712159,59.3739410795738,-1.42898259175768,-34.6047140927053,2.87795093096012
2.83988245612587,-14.6193901858465,-10.3534007355313,4.88203443334189,-36.1097179868688,-38.8119367550415,-4.69792669575134,59.0527736007106,-1.52007653161016,-34.5708849360549,2.80477493026061
2.94107560002279,-14.5439758036717,-10.3208635985712,4.84570272402592,-35.7143563784225,-38.7773940385933,-4.54104480536466,58.7083539074602,-1.62310720267462,-34.5161439299966,2.74492144902482
3.07777778640469,-14.4651006921347,-10.2861172945821,4.80602150078359,-35.3103435701906,-38.731278410196,-4.38077861838411,58.3414805067226,-1.73625870827304,-34.4420515833825,2.69762487069524
3.23863583329435,-14.382648075602,-10.2495232869712,4.76315311762625,-34.899049753356,-38.6734396748622,-4.21784699683552,57.9531105785012,-1.85772481181881,-34.3504845935861,2.66214996303152
3.41322069083236,-14.2965234936516,-10.2114638327396,4.71728592171081,-34.4818795611355,-38.6038524811202,-4.05299820025209,57.5443613105473,-1.98572444012231,-34.2435879381216,2.63781098334574
3.59264399806113,-14.2066613618022,-10.172334743988,4.66863096090839,-34.0602595222637,-38.522616600415,-3.88700151555075,57.1165093484415,-2.11851672131845,-34.1237195513135,2.62398725889568
3.76967705529381,-14.1130312304529,-10.1325378824676,4.61741832224625,-33.6356252754004,-38.4299551291811,-3.72063790400664,56.6709879286591,-2.25441557622555,-33.9933886240288,2.62013390039716
3.93862134564482,-14.0156435247155,-10.0924735990269,4.56389319871866,-33.2094086779229,-38.3262105555573,-3.55468977740043,56.2093813159296,-2.39180381806805,-33.8551892305657,2.62578669324085
4.09509434275466,-13.9145545528222,-10.0525333202235,4.50831178420315,-32.7830249607533,-38.2118386854035,-3.38993009673561,55.7334162475991,-2.52914664591985,-33.7117315443694,2.64056070849786
4.23581202689286,-13.8098705839788,-10.0130924680286,4.45093709448542,-32.3578600938425,-38.0874004890058,-3.2271110662798,55.2449501913874,-2.66500435368748,-33.5655732746307,2.66414273024589
4.35839897889101,-13.7017508174312,-9.97450388054302,4.39203480681273,-31.9352585305597,-37.9535520040291,-3.06695276076306,54.7459563425104,-2.79804402447803,-33.4191541310685,2.69627816284462
4.46123235282059,-13.590409091779,-9.93709188507541,4.33186920066999,-31.5165114936292,-37.8110325052865,-2.91013206616457,54.2385054159339,-2.92704994202786,-33.2747361184178,2.73675360905727
4.54331632853686,-13.4761142154197,-9.90114716004284,4.27069926958113,-31.1028459544115,-37.6606512221901,-2.75727233092899,53.7247444242131,-3.05093243103749,-33.1343522579072,2.7853767266738
4.60418099094208,-13.35918883481,-9.86692250703397,4.2087750609235,-30.6954144439777,-37.5032729441372,-2.60893411281493,53.2068727629932,-3.16873484460823,-32.99976590348,2.84195520743019
4.64379976999169,-13.2400067980062,-9.83462963635892,4.1463342918561,-30.295285817007,-37.3398028953923,-2.46560736580451,52.6871160445573,-3.27963845663187,-32.8724421879167,2.90627673552855
4.66252065691226,-13.1189890171392,-9.80443704634793,4.08359928590518,-29.903437066777,-37.1711712798626,-2.32770534444411,52.167698217952,-3.38296509147779,-32.7535323780716,2.97809157429566
4.66100759255599,-12.9965978837656,-9.77646904760273,4.02077427488724,-29.5207462656439,-36.9983178937137,-2.19556041891768,51.6508125926348,-3.47817742569556,-32.643871136121,3.05709904145962
4.64018943152516,-12.8733303436403,-9.75080594858727,3.95804311214924,-29.1479866875538,-36.8221771844711,-2.06942190498078,51.1385924446231,-3.56487701149322,-32.5439859542266,3.14293863946156
4.60121466444789,-12.7497097904201,-9.72748537927232,3.89556744344663,-28.7858221613685,-36.6436641030138,-1.9494559265764,50.6330819290945,-3.64280017922865,-32.4541174044035,3.23518608731275
4.54541065205976,-12.6262769875135,-9.70650468711326,3.83348537898632,-28.4348037047448,-36.4636610517068,-1.83574724757241,50.1362080451009,-3.71181205629494,-32.3742483580217,3.33335402466537
4.47424653068176,-12.5035802689708,-9.68782429853437,3.77191070240944,-28.095367491901,-36.2830061793348,-1.72830293259607,49.6497543891035,-3.77189898036304,-32.3041400143222,3.43689678554544
4.38929923075441,-12.3821653001617,-9.67137190379182,3.71093263986114,-27.7678342075051,-36.1024832148649,-1.62705762863987,49.1753373915049,-3.82315958741036,-32.2433724602657,3.54521841214522
4.29222224260651,-12.2625646955785,-9.65704729567432,3.65061619685524,-27.4524098286937,-35.9228129729586,-1.53188020636937,48.7143856580031,-3.86579483273052,-32.1913875517228,3.65768300685917
4.18471689293733,-12.1452877949765,-9.64472767259533,3.59100305450198,-27.1491878571414,-35.7446466095604,-1.44258146862971,48.2681229423377,-3.90009717251772,-32.1475320936391,3.77362656403837
4.06850598094081,-12.0308108913525,-9.63427320361122,3.53211300037844,-26.8581529942224,-35.568560658381,-1.35892262190343,47.8375551643049,-3.92643910798548,-32.1110995246902,3.89236951833531
3.94530967839366,-11.9195681859462,-9.62553264728481,3.47394585277147,-26.5791862171696,-35.3950538386995,-1.28062420756227,47.4234617605385,-3.94526128329337,-32.0813685456391,4.01322935410774
3.81682363284197,-11.811943717898,-9.61834881960923,3.41648382140847,-26.3120711777076,-35.2245455890663,-1.20737519901878,47.0263915207699,-3.95706033703207,-32.0576373937348,4.13553274132694
3.68469923343102,-11.7082644809901,-9.61256372010887,3.35969423537666,-26.0565018133971,-35.0573762465932,-1.13884198892387,46.6466629275392,-3.96237673011669,-32.03925278769,4.25862680836341
3.55052600860766,-11.6087948978868,-9.6080231500709,3.30353256044115,-25.8120910406703,-34.8938087574845,-1.07467701997822,46.284368892946,-3.96178280101799,-32.0256329350332,4.38188931473752
3.41581612572359,-11.5137327744456,-9.6045806899855,3.24794562187693,-25.5783803869892,-34.7340317763654,-1.01452685449886,45.9393856799025,-3.95587132286238,-32.0162843519138,4.50473760866718
3.28199095509281,-11.4232068060165,-9.60210093993937,3.19287494434633,-25.3548504123837,-34.5781639940385,-0.958039528974268,45.6113857081434,-3.94524484589906,-32.0108125417594,4.62663631715161
3.15036964531163,-11.3372756585951,-9.60046196320142,3.13826011872938,-25.1409317619108,-34.4262595230102,-0.904871094463289,45.2998538705566,-3.93050609157398,-32.0089268033645,4.74710372915435
3.02215963275224,-11.2559286030122,-9.59955690874532,3.08404210831949,-24.9360166785919,-34.2783141612776,-0.854691293751542,45.0041069170202,-3.91224961392841,-32.010439624089,4.86571683442478
2.89844897712526,-11.1790876403423,-9.5992948236381,3.03016641221091,-24.739470793785,-34.1342723448078,-0.807188364843396,44.7233154011262,-3.89105486422407,-32.015261284906,4.98211500735515
2.780200379698,-11.1066110211353,-9.59960070086657,2.97658601024615,-24.5506450024115,-33.9940345903967,-0.762072985198415,44.4565276355708,-3.86748069909427,-32.0233904426304,5.09600238141516
2.66824670651252,-11.0382980302909,-9.60041484016109,2.9232640211817,-24.3688872261158,-33.8574652276256,-0.719081384627477,44.2026950701391,-3.84206127706104,-32.0349015273326,5.2071490213772
2.56328781397959,-10.9738948840209,-9.60169162549523,2.87017601420909,-24.1935538684931,-33.7244002248518,-0.677977662409718,43.9606984940486,-3.81530320502859,-32.0499297846832,5.3153910342217
2.46588846901739,-10.9131015658952,-9.60339784042134,2.81731192355695,-24.0240207714683,-33.5946549306235,-0.638555351102519,43.7293744702528,-3.7876837320863,-32.0686547060692,5.42062973740753
2.37647718129634,-10.8555794156621,-9.60551065006837,2.76467752566063,-23.8596934885729,-33.4680315768459,-0.600638277294149,43.5075414298067,-3.75964974700083,-32.0912824489183,5.52282992120597
2.29534582887558,-10.8009592770454,-9.60801537729223,2.71229544724925,-23.7000166986281,-33.3443264193451,-0.564080775861956,43.2940248868643,-3.73161732256607,-32.1180277166647,5.62201713424684
2.22265006063412,-10.7488500084015,-9.6109031926184,2.66020568042733,-23.5444825936828,-33.2233364195021,-0.528767315632887,43.0876812775243,-3.70397156656996,-32.1490955086134,5.71827384514188
2.15841058759267,-10.6988471624302,-9.61416882653944,2.60846558833315,-23.3926380892407,-33.1048653920505,-0.494611589430064,42.8874199759937,-3.67706658114495,-32.1846631778481,5.81173432740946
2.10251560523205,-10.650541647508,-9.61780840084388,2.55714939367541,-23.2440907229155,-32.9887295566613,-0.461555112626615,42.6922230958651,-3.65122538888784,-32.2248632974619,5.90257817885775
2.05472468501818,-10.6035281931171,-9.62181746316255,2.50634715380768,-23.0985131297473,-32.8747624359674,-0.4295653666559,42.5011627400825,-3.62673974243277,-32.2697678696401,5.99102249415332
2.01467449971785,-10.5574134550107,-9.62618929416655,2.45616324095586,-22.9556460091885,-32.7628190436281,-0.398633522660124,42.3134154201273,-3.60386978387488,-32.319374406373,6.07731283565846
1.98188668043333,-10.5118236117859,-9.63091353834386,2.40671436474352,-22.8152995305922,-32.6527793066273,-0.368771787717414,42.128273424638,-3.58284355717024,-32.3735943913781,6.16171327330881
1.95577794444069,-10.46641132253,-9.63597518742703,2.35812719495377,-22.6773531603112,-32.5445506696651,-0.340010429442598,41.9451529819127,-3.56385640244834,-32.4322446066152,6.24449586606971
1.93567241077141,-10.4208619339926,-9.64135392250476,2.31053566315344,-22.5417539327932,-32.4380698388413,-0.312394549097,41.763599130237,-3.54707028085642,-32.4950417420394,6.32593001206684
1.92081578470962,-10.3748988446294,-9.64702379925419,2.26407803935703,-22.4085132279213,-32.333303638119,-0.285980684381571,41.5832872838921,-3.53261309419978,-32.5616005807152,6.40627209502163
1.91039089721809,-10.3282879516558,-9.65295324272235,2.21889389119781,-22.2777021542992,-32.2302489752035,-0.260833329264066,41.4040215594427,-3.52057807306454,-32.6314358905053,6.48575581820482
1.90353397147532,-10.280841125933,-9.65910530500854,2.17512103592727,-22.1494456709109,-32.1289319417755,-0.237021459660037,41.2257300049987,-3.51102330765778,-32.7039680177011,6.5645835725571
1.89935097167645,-10.2324186777585,-9.6654381313996,2.13289258990281,-22.0239156074201,-32.029406103644,-0.214615151108344,41.0484569531647,-3.50397148906099,-32.778532098109,6.64291915156593
1.89693345821729,-10.1829307941788,-9.67190557760709,2.09233420788262,-21.9013227676157,-31.9317500664852,-0.193682367845321,40.872352794325,-3.49940992216067,-32.8543907442595,6.72088209703778
1.89537349960695,-10.1323379457427,-9.6784579222581,2.05356158752319,-21.7819083207941,-31.8360644306001,-0.174285991492938,40.6976615373028,-3.49729087269974,-32.9307499687933,6.79854391651996
1.89377734061002,-10.0806502786578,-9.68504262448364,2.01667829427449,-21.6659346995546,-31.7424682720027,-0.156481142276547,40.5247065845211,-3.49753231993627,-33.0067779307404,6.87592634059522
1.89127766892075,-10.027926027235,-9.69160508657493,1.98177393986685,-21.5536762282705,-31.6510953037803,-0.140312828837056,40.353875193617,-3.50001919453831,-33.0816258708854,6.95300169165291
