Finger Velocity,Scap_X,Scap_Y,Scap_Z,Shoulder horiz abd-adduction,Shoulder flexion-extension,Shoulder internal-external rotation,elbow flexion-extension,forearm pronation-supination,wrist flexion-extension,wrist radial-ulnar deviation
1.66651820240905,-14.6329423420923,-10.2157568751388,4.97494242510961,-40.6960262550169,-35.2636853367956,-2.51935335844616,58.1471029975822,-16.9175850491315,-48.953523120173,30.8290386399586
1.94532395416761,-14.6284626239891,-10.2059537923937,4.9089475213014,-40.6690304204456,-35.2201823501383,-2.48308766270148,58.2348806042638,-16.7685795692704,-48.3489839552353,30.2507898274745
2.25226753754047,-14.623150295065,-10.1960873594193,4.83942631136217,-40.6362634398209,-35.1658667541363,-2.44149555505105,58.3343646626867,-16.6132220478305,-47.7257583801384,29.646756911317
2.58759117862319,-14.6168458006603,-10.1861919633421,4.76665441344786,-40.5972361681592,-35.0994543381211,-2.39453771030116,58.4464043462201,-16.4509516750916,-47.085883880625,29.0190943812371
2.95138399310391,-14.6093806661191,-10.1762837969386,4.69093392773563,-40.5514998379465,-35.0196497728263,-2.34222777854792,58.5718352027344,-16.2810369128058,-46.4311066707305,28.3698832081722
3.34355509161175,-14.6005796474714,-10.1663590431886,4.61258628592207,-40.4986538525663,-34.9251615533296,-2.28463039995835,58.7114710478598,-16.1025662017119,-45.7627552813074,27.7010116957562
3.7638129748533,-14.5902629414585,-10.1563925005851,4.53194440820816,-40.4383527056354,-34.8147175775975,-2.22185801148237,58.8660959332364,-15.9144425006798,-45.0816259331649,27.0140627474636
4.21165027138569,-14.5782484130184,-10.1463367138399,4.44934436653083,-40.3703118111877,-34.6870810532546,-2.15406650407602,59.0364563337356,-15.7153821451342,-44.3878881907991,26.3102157307382
4.68633318424988,-14.5643538085093,-10.1361216571125,4.36511676639559,-40.2943120614067,-34.5410664100835,-2.08144981873249,59.2232536799439,-15.5039184683015,-43.6810185821715,25.5901705121384
5.18689523196723,-14.5483989332701,-10.1256549945523,4.2795780690156,-40.2102029706824,-34.3755548879659,-2.00423360451989,59.4271373358482,-15.2784105678785,-42.959768363253,24.8540999756312
5.71213500682736,-14.5302077796251,-10.1148229174516,4.19302208197337,-40.1179043177013,-34.1895094674795,-1.92266810188451,59.6486980913885,-15.0370575163393,-42.2221695210573,24.1016355081998
6.26061774973721,-14.5096105938473,-10.1034915327181,4.1057118494703,-40.0174062584577,-33.9819888124629,-1.83702045558083,59.8884622094638,-14.7779181997124,-41.4655806787031,23.3318877267924
6.83068057439965,-14.4864458680661,-10.0915087581542,4.01787217062165,-39.9087679467269,-33.7521599022339,-1.74756669778095,60.146886038884,-14.4989368272508,-40.6867720828568,22.5435023835205
7.42044117802436,-14.4605622374126,-10.0787066673857,3.92968296446533,-39.7921147582333,-33.4993090505167,-1.65458366835883,60.424351178117,-14.1979739889994,-39.8820465504634,21.7347491671149
8.02780986107111,-14.4318202559747,-10.0649042178597,3.84127368207005,-39.6676342654932,-33.2228510441803,-1.55834115344837,60.7211601483922,-13.8728429579329,-39.0473912667571,20.9036391958329
8.65050465178302,-14.4000940196336,-10.0499102842955,3.75271893852062,-39.5355711494346,-32.9223361903296,-1.45909452409548,61.0375325097326,-13.5213507451141,-38.1786537524242,20.0480654719117
9.28606929763203,-14.365272601352,-10.0335269056894,3.66403550039395,-39.3962212610328,-32.5974551324632,-1.357078142805,61.3736013342732,-13.1413432264858,-37.2717342104604,19.1659594716455
9.93189384908708,-14.3272612652744,-10.0155526392487,3.57518071859156,-39.2499250623812,-32.2480413785289,-1.25249977486178,61.7294099438652,-12.7307534759147,-36.322785808204,18.2554563467062
10.5852375242381,-14.2859824291273,-9.99578590400061,3.48605244492179,-39.0970606826038,-31.8740715681443,-1.14553619264795,62.1049088274034,-12.2876522694842,-35.3284141754141,17.3150608496892
11.2432535080306,-14.2413763491741,-9.97402819351144,3.39649041813676,-38.9380368195016,-31.4756635869577,-1.03633009758955,62.4999526772629,-11.8102995788969,-34.2858674333898,16.3438060223686
11.9030153089787,-14.1934015085998,-9.95008704245376,3.30627905613087,-38.7732857018108,-31.0530727088949,-0.924988411619319,62.9142975199169,-11.2971957550428,-33.1932083605211,15.3413968702718
12.5615442706348,-14.1420346991268,-9.92377864523989,3.21515154909148,-38.6032562988077,-30.6066860093037,-0.811581914474658,63.3475979583021,-10.7471310242503,-32.0494607975248,14.3083316556518
13.2158378159153,-14.0872707967607,-9.89493004445614,3.12279511403769,-38.4284079248387,-30.1370153424558,-0.696146129975537,63.7994045886386,-10.159231884514,-30.8547230729624,13.2459940353162
13.8628979904179,-14.0291222448232,-9.86338082898073,3.02885724316445,-38.2492043396928,-29.6446892137443,-0.578683298090036,64.2691616981476,-9.5330029956668,-29.6102421259708,12.156710063301
14.4997598667007,-13.9676182694011,-9.8289843030949,2.93295275668884,-38.0661083973672,-29.1304438969624,-0.45916521575689,64.7562053878563,-8.86836320015126,-28.3184432365667,11.0437651677949
15.1235193754558,-13.9028038627179,-9.79160810665596,2.83467145735627,-37.8795772529431,-28.5951141474251,-0.337536695370676,65.2597622942784,-8.16567438638978,-26.9829119810372,9.91137773811549
15.7313601417055,-13.8347385780494,-9.75113428274511,2.73358618016229,-37.6900581065375,-28.039623841863,-0.21371938140993,65.7789491073284,-7.42576201911965,-25.6083272742573,8.76462801751059
16.3205789244927,-13.7634951856684,-9.70745880502953,2.62926103737449,-37.4979844477254,-27.4649768367934,-0.0876156833414464,66.3127731020032,-6.64992632144426,-24.2003470856708,7.60934357227552
16.8886092867239,-13.689158243116,-9.6604905942765,2.5212596738513,-37.3037727622556,-26.8722482801125,0.0408873796084015,66.8601339170868,-5.83994331324341,-22.7654514472331,6.45194554234237
17.4330431573859,-13.6118226344989,-9.61015007223298,2.40915336705194,-37.1078196714548,-26.2625765412573,0.171914578616568,67.4198268212311,-4.99805519420083,-21.3107504154977,5.29926289402528
17.9516499906526,-13.5315921316389,-9.55636731970835,2.29252882602081,-36.9104994883637,-25.6371558518968,0.305599227048206,67.9905476998409,-4.1269499007554,-19.8437673053028,4.15832462161722
18.4423932746291,-13.448578024371,-9.49907992189299,2.17099556339623,-36.7121621868401,-24.9972296773027,0.44208034171976,68.570899968324,-3.22973005140181,-18.3722093751941,3.03614188281106
18.9034441957063,-13.3628978585812,-9.43823059678508,2.04419273583847,-36.513131782821,-24.3440847687708,0.581500227018972,69.1594035613565,-2.30987190655721,-16.9037389554489,1.93949306876236
19.3331923216725,-13.2746743096531,-9.37376471288851,1.91179537069212,-36.3137051146937,-23.6790457812712,0.724002458129199,69.7545060618967,-1.37117538350492,-15.4457577014745,0.874724611965813
19.7302532266558,-13.1840342072031,-9.30562781070174,1.77351991739049,-36.1141509835308,-23.0034702844164,0.869730209392708,70.3545959252227,-0.417706551386913,-14.0052152779488,-0.152421097091455
20.093473042409,-13.0911077158121,-9.23376324773228,1.62912907925111,-35.9147095851931,-22.3187439567582,1.01882484760427,70.9580176368723,0.54626564941952,-12.5884514481356,-1.13694183811448
20.4219299820228,-12.9960276665377,-9.15811008658991,1.47843589411187,-35.7155921508124,-21.6262757379704,1.1714246878832,71.5630885336565,1.51633649624443,-11.2010774908166,-2.07467019961112
20.71493294248,-12.8989290247069,-9.07860133833291,1.32130703958579,-35.5169807182898,-20.9274927209084,1.32766379547627,72.1681169213126,2.48803431019077,-9.84789947155207,-2.96232485210651
20.9720173500723,-12.7999484703774,-8.99516265745702,1.15766534032432,-35.3190279812354,-20.2238345926195,1.48767071259388,72.7714210406352,3.45688897303413,-8.53288259769722,-3.79752009994949
21.1929384661562,-12.6992240594015,-8.90771156002457,0.987491452172754,-35.1218571941306,-19.5167474759117,1.65156699361904,73.3713483653792,4.41849823527393,-7.25915307829742,-4.57873831896538
21.3776624185622,-12.5968949260989,-8.81615720369898,0.810824693731479,-34.925562146711,-18.8076770776787,1.8194654426305,73.9662946642011,5.36859016026937,-6.02903184867253,-5.30527201474563
21.5263552648403,-12.4931009837893,-8.72040073243466,0.627762991222372,-34.7302072525707,-18.0980611134112,1.99146796497808,74.55472223228,6.30308035894622,-4.8440933021761,-5.97714340670476
21.63937042612,-12.3879825769302,-8.62033615555248,0.438461898335489,-34.5358278231518,-17.3893210446805,2.16766297308707,75.1351767012769,7.2181230109412,-3.70524175938636,-6.59500968331152
21.7172348535949,-12.2816800378873,-8.51585170539961,0.243132649964488,-34.3424306160055,-16.6828532326861,2.34812232730157,75.7063018714036,8.11015501180515,-2.61279867090242,-7.16006153468902
21.760634302575,-12.1743331026914,-8.40683160124606,0.0420392116292378,-34.149994755452,-15.9800196696494,2.53289784135185,76.266852077388,8.97593290603436,-1.56659431486399,-7.67392147875304
21.7703980910569,-12.0660801453895,-8.29315813925968,-0.164505698532166,-33.9584731270621,-15.2821384929884,2.7220174311407,76.8157017015695,9.81256254233798,-0.566058809530629,-8.13854710633327
21.7474837105228,-11.9570572015258,-8.17471402782467,-0.376145607831819,-33.7677943470731,-14.5904745094655,2.91548102876775,77.3518515806625,10.6175216102227,0.38969158277163,-8.55614290003351
21.6929616362379,-11.8473967669809,-8.05138489091457,-0.592486257483527,-33.5778654035445,-13.9062299594282,3.11325641893669,77.8744322099419,11.3886753825842,1.30177577493875,-8.92908288871394
21.6080006531458,-11.7372263758718,-7.9230618660129,-0.813102445066301,-33.3885750547239,-13.2305357420897,3.31527518244208,78.3827038145624,12.1242860958519,2.17147870925062,-9.25984517426721
21.4938539724521,-11.626666977717,-7.78964422530816,-1.03754560024772,-33.1997980484281,-12.564443308519,3.52142895201804,78.8760535144127,12.8230164476381,3.00019276410423,-9.55095835528365
21.3518463644656,-11.5158311482618,-7.65104194960117,-1.26535191514685,-33.0114001927956,-11.908917411908,3.73156619930738,79.3539899412172,13.4839276918536,3.78936994928672,-9.80495910062223
21.183362476966,-11.4048211801997,-7.50717818377975,-1.49605082116344,-32.8232442645807,-11.2648298834582,3.9454897757603,79.816135765827,14.1064727827981,4.5404844827888,-10.0243596095393
20.9898364473775,-11.2937271104324,-7.35799150132358,-1.72917358326109,-32.6351966889685,-10.6329545757106,4.16295542087189,80.262218657881,14.6904849820169,5.25500486981191,-10.2116234246283
20.7727428537054,-11.1826247502499,-7.20343790544053,-1.96426177092701,-32.4471348674115,-10.0139635836898,4.38367142535804,80.6920612310016,15.2361623063845,5.93437430604292,-10.3691480010534
20.5335889860728,-11.0715737933722,-7.04349249934968,-2.2008753629851,-32.2589549689697,-9.40842481953155,4.60729959395673,81.1055705263455,15.7440481696068,6.57999806395008,-10.4992525240751
20.2739083603589,-10.9606160828948,-6.87815076879747,-2.43860025127868,-32.0705799388381,-8.81680098157551,4.83345759227741,81.5027275563246,16.2150085552753,7.19323644795848,-10.6041696480485
19.9952553403829,-10.8497741212038,-6.70742943395991,-2.6770549253046,-31.8819674224017,-8.23944992756592,5.06172268491131,81.8835773692751,16.650206057299,7.77540191193152,-10.6860400545887
19.6992006875851,-10.7390499072267,-6.53136684322548,-2.91589614508829,-31.6931172655909,-7.67662643381394,5.29163678421107,82.2482200089383,17.0510711332105,8.32775903496923,-10.7469089618411
19.3873278191768,-10.6284241829644,-6.35002289808943,-3.15482344222316,-31.5040782398435,-7.12848529575321,5.52271264517061,82.596802639033,17.4192709387317,8.85152624593858,-10.7887239414529
19.0612295287575,-10.5178561648682,-6.1634785175014,-3.39358232876378,-31.3149536500402,-6.5950856994065,5.75444097545019,82.9295129942612,17.7566761440884,9.34787843271136,-10.8133336031073
18.7225049084459,-10.4072838232695,-5.97183467067645,-3.63196613906012,-31.1259055121099,-6.07639676761858,5.98629818507877,83.2465742153284,18.0653261669205,9.81794981076892,-10.822486878731
18.3727562090604,-10.296624753566,-5.77521102699994,-3.86981647682703,-30.9371570350881,-5.57230415774017,6.21775447542168,83.5482410345986,18.3473932902443,10.2628366187411,-10.817832771373
18.0135853847302,-10.1857776571935,-5.5737442878144,-4.10702228466613,-30.7489932087564,-5.08261755873929,6.44828195947191,83.8347972019283,18.6051461625355,10.68359935393,-10.8009205246984
17.6465900898843,-10.0746244214715,-5.36758627586743,-4.34351759436066,-30.5617593727195,-4.60707890994159,6.67736251445604,84.1065539728544,18.8409131917723,11.0812643803853,-10.7732002262453
17.2733589288,-9.96303275830399,-5.15690186324293,-4.57927805386809,-30.3758577182416,-4.1453711455856,6.90449509164273,84.3638494221247,19.0570463426295,11.4568248503113,-10.7360238949552
16.8954657993642,-9.85085933430308,-4.94186681900315,-4.81431636061636,-30.1917417520956,-3.69712725994334,7.12920224474396,84.6070483000183,19.2558858315601,11.8112409687358,-10.6906471286067
16.5144632217612,-9.73795330037436,-4.7226656564835,-5.04867675947124,-30.0099088363208,-3.26193948571744,7.35103568510387,84.8365421261379,19.4397261945922,12.1454396870037,-10.6382313970475
16.131874597628,-9.62416010898469,-4.4994895588947,-5.28242878864995,-29.8308910082596,-2.83936838415133,7.56958072873274,85.0527492215974,19.6107841807748,12.4603139360001,-10.5798470555673
15.7491854039742,-9.50932549414717,-4.27253445940318,-5.51566047991086,-29.6552443747652,-2.42895165968685,7.78445956862253,85.2561144137538,19.7711689042831,12.756721526582,-10.5164771130431
15.367833387009,-9.3932994830662,-4.04199934521801,-5.74847123804489,-29.4835374527662,-2.03021253392367,7.99533338161497,85.4471081978868,19.922854672394,13.0354838725842,-10.449021720949
14.9891978821863,-9.27594030879385,-3.8080848421144,-5.98096463225507,-29.316338884336,-1.64266754041054,8.20190334907158,85.6262251970363,20.0676568905949,13.2973847303823,-10.3783032653214
14.6145884465571,-9.1571180997178,-3.57099211668222,-6.21324132542256,-29.1542049806323,-1.26583363170639,8.40391072192207,85.7939818200884,20.2072114225399,13.5431691729896,-10.3050718724699
14.2452330461958,-9.03671823361841,-3.33092211148281,-6.44539235026574,-28.9976675457342,-0.899234522504011,8.6011360907895,85.9509130791032,20.3429577457818,13.7735430005717,-10.2300111049465
13.882266093284,-8.91464426072358,-3.08807510696209,-6.67749291908575,-28.847222404434,-0.542406225637313,8.79339803562894,86.0975685887097,20.4761261903495,13.9891727400008,-10.1537436276245
13.5267166724806,-8.79082032221239,-2.84265058654089,-6.90959692900007,-28.7033190137799,-0.19490176760167,8.98055133234727,86.2345078296748,20.6077294747742,14.1906863366303,-10.0768366453372
13.1794973323461,-8.66519301848354,-2.59484737041683,-7.14173229830005,-28.5663514815728,0.14370490837819,9.16248489004793,86.3622948115309,20.738558668087,14.3786746121779,-9.99980693394692
12.8413938424542,-8.53773271274887,-2.34486398075215,-7.37389724182335,-28.4366512519266,0.473815835396573,9.33911958365887,86.4814923112366,20.8691836171924,14.5536935444253,-9.92312529944681
12.5130563278549,-8.40843428532467,-2.09289920427109,-7.60605756502949,-28.3144816550806,0.795806700335362,9.51040613437364,86.5926558921161,20.999957793679,14.7162673993027,-9.84722031154818
12.1949921871922,-8.27731737794437,-1.83915282168586,-7.83814503058676,-28.2000344593642,1.11002530233144,9.67632317609597,86.6963279188877,21.1310274293263,14.8668927074916,-9.77248118150717
11.8875611767343,-8.14442618224245,-1.58382647027238,-8.07005682979076,-28.0934285057322,1.41679078692492,9.8368756281144,86.7930317838234,21.2623447178696,15.0060430305418,-9.69925969586147
11.5909729982616,-8.00982883029333,-1.32712459628997,-8.3016561729185,-27.9947104455039,1.71639363312707,9.99209346709272,86.8832665490351,21.3936847589163,15.1341744111131,-9.62787117671581
11.3052876637242,-7.87361643892711,-1.0692554447463,-8.53277399382091,-27.903857536613,2.00909634539008,10.1420309509795,86.9675021888132,21.5246658102935,15.2517313518945,-9.55859450951677
11.0304188249488,-7.73590184917195,-0.810432031581871,-8.76321174098613,-27.8207823803446,2.29513478009095,10.2867662953341,87.0461755797442,21.6547723022122,15.3591531228835,-9.49167135551699
10.7661401554441,-7.59681809566474,-0.550873047324251,-8.99274519847456,-27.7453393984304,2.57472002065917,10.426401745736,87.1196873357141,21.7833799593214,15.4568801634472,-9.42730474248502
10.5120947584166,-7.4565166440015,-0.290803645467191,-9.22112924476328,-27.6773327634158,2.84804070520854,10.5610639352528,87.1883995288414,21.9097822892387,15.5453603283256,-9.36565729304818
10.2678074570275,-7.31516544653027,-0.030456065849055,-9.44810341487885,-27.6165254129567,3.11526570225072,10.6909043669887,87.2526342877922,22.0332176442334,15.6250547263988,-9.30684938967857
10.0326997073117,-7.17294688253695,0.22992996914558,-9.67339808424487,-27.5626487149774,3.37654702186967,10.8160998206463,87.312673227956,22.1528960577761,15.6964429157348,-9.25095757718075
9.80610676889297,-7.0300556579344,0.490107162534789,-9.89674105063936,-27.515412320707,3.63202284367829,10.9368524523903,87.3687576420725,22.2680251008701,15.7600272439232,-9.19801347057197
9.58729668076527,-6.88669673572082,0.74982093619824,-10.117864264724,-27.4745137572648,3.88182054408205,11.0533893467994,87.4210893614855,22.3778340827678,15.8163361516192,-9.14800338372333
9.37549052447974,-6.74308335075581,1.00881017613898,-10.3365104562253,-27.4396473699473,4.12605961730044,11.1659613000915,87.4698321858918,22.4815960198296,15.8659262818688,-9.10086883698352
9.1698834182711,-6.59943513548118,1.26680846184584,-10.5524394197154,-27.4105123140885,4.3648544074086,11.2748406713151,87.5151137724827,22.5786469045418,15.9093832566719,-9.05650804697596
8.96966567364695,-6.45597635409982,1.52354576845974,-10.7654337504467,-27.3868193991522,4.59831659991903,11.3803182207397,87.5570278720324,22.6684019205726,15.9473210010595,-9.01477844966336
8.77404355895013,-6.31293421716788,1.77875059044041,-10.9753038448501,-27.3682966857579,4.82655745415796,11.4826989365059,87.5956367992742,22.7503683632133,15.9803795219094,-8.97550025602625
8.58225914865051,-6.17053722945169,2.03215240883113,-11.1818919983315,-27.3546938156824,5.04968978135606,11.5822969137631,87.6309740293146,22.8241551277305,16.0092210934214,-8.93846098179362
8.39360878764783,-6.02901351214118,2.28348441183128,-11.3850754510954,-27.3457851100102,5.26782968259248,11.6794293972318,87.6630468225364,22.889478716207,16.0345248710084,-8.90342082400445
8.20745976126304,-5.88858903630581,2.53248637400457,-11.5847682600726,-27.3413715073117,5.48109806057986,11.7744101412214,87.6918387985445,22.9461657922263,16.0569800444704,-8.87011868542729
8.02326482875209,-5.74948570905454,2.7789075979718,-11.7809219164558,-27.3412814425124,5.68962191805763,11.8675422876744,87.717312405923,22.9941523937558,16.0772777283769,-8.83827859185334
7.84057434684522,-5.61191927136208,3.02250982502412,-11.9735246803732,-27.3453707905252,5.8935354559549,11.9591110076616,87.7394112675347,23.0334800050518,16.0961018518711,-8.80761622223484
7.65904577692519,-5.47609700126044,3.26307003213956,-12.162599657266,-27.3535220092406,6.09298098427246,12.0493761833079,87.7580624161267,23.0642887856128,16.1141193482149,-8.77784527856286
7.4784504332158,-5.34221526453618,3.50038305221532,-12.3482016898369,-27.3656426102151,6.28810965616434,12.1385654199481,87.7731784657792,23.0868083477655,16.1319699662317,-8.74868345319768
7.29867738914168,-5.21045700434346,3.73426397382019,-12.5304131926666,-27.3816630710197,6.47908203175496,12.2268676804874,87.7846597851776,23.1013465531033,16.1502560378014,-8.71985779713895
7.11973451519565,-5.08098929935773,3.96455028734692,-12.709339125235,-27.4015342925674,6.66606847318589,12.3144278390186,87.7923967447708,23.1082768526968,16.1695325369551,-8.69110934353954
