Finger Velocity,Scap_X,Scap_Y,Scap_Z,Shoulder horiz abd-adduction,Shoulder flexion-extension,Shoulder internal-external rotation,elbow flexion-extension,forearm pronation-supination,wrist flexion-extension,wrist radial-ulnar deviation
0.592312639677087,-13.9130652298347,-10.4045111966574,2.9403636980196,-29.6899320921233,-31.2271294703975,-1.76838267522267,49.6980866360156,-3.00831589752046,-49.1004369417858,39.5401899764933
0.742027313461796,-13.8989216662617,-10.4052042276061,2.89827247573439,-29.6501253505863,-31.2290055496947,-1.73760394402229,49.732919846005,-2.96912280659331,-49.0918364260487,39.4924458828423
0.910288487483389,-13.8814234231478,-10.4057938182181,2.85388450276725,-29.6014306291369,-31.2302868970796,-1.70351004228539,49.7682292650297,-2.92942774125276,-49.0827855777722,39.4453201515117
1.09613186169812,-13.8602188050585,-10.4061454996545,2.80727229244165,-29.5425659613823,-31.2308278476264,-1.66588074388733,49.803258967879,-2.88971467813049,-49.0733149315115,39.3992632587952
1.29880997075975,-13.8349466465456,-10.4061184000574,2.75852140387009,-29.4721871199487,-31.2304457596834,-1.62449590541446,49.8371445478456,-2.85051076955445,-49.0634552550198,39.3547155438908
1.51763508338439,-13.8052379330889,-10.4055681506788,2.70772875006236,-29.3888991839054,-31.2289172574071,-1.57913635446256,49.8689145213949,-2.8123827799139,-49.0532384011596,39.3121003518272
1.75189812443966,-13.7707174588596,-10.404349869215,2.65500081042809,-29.2912700329328,-31.2259751600255,-1.52958494496269,49.8974935332038,-2.77593266817932,-49.0426987333591,39.2718179585389
2.00082679701174,-13.7310055090927,-10.4023211283511,2.60045179806931,-29.1778456538708,-31.2213062830491,-1.47562783640506,49.9217074612256,-2.74179223566055,-49.0318749667454,39.2342403669149
2.26356487324001,-13.685719559849,-10.3993448227018,2.54420182685313,-29.0471670932209,-31.2145502667221,-1.41705605109116,49.9402905033602,-2.7106167500405,-49.0208121325642,39.1997069541597
2.53916362139297,-13.6344759933299,-10.3952918543849,2.48637511800384,-28.8977888391371,-31.2052995436086,-1.35366736314818,49.9518943022036,-2.68307745806181,-49.0095632810141,39.1685208599824
2.82658064282966,-13.5768918317399,-10.390043565404,2.42709828141065,-28.7282983709572,-31.193100503769,-1.28526857545598,49.9550991303182,-2.65985291188781,-48.9981905251394,39.1409459602548
3.12468350713536,-13.5125864965846,-10.3834938539568,2.36649870283861,-28.5373365759137,-31.1774558590591,-1.21167824166436,49.9484271145033,-2.64161906145538,-48.986765109589,39.1172042836833
3.43225664750168,-13.4411836031491,-10.3755509220167,2.30470306331913,-28.3236187022266,-31.1578281555248,-1.1327298831222,49.9303574233102,-2.62903811260258,-48.9753663422181,39.0974737893212
3.74801054310744,-13.3623128014667,-10.3661386129176,2.24183600871523,-28.0859554930105,-31.1336443418464,-1.04827572788103,49.8993432774131,-2.62274622095332,-48.9640794072128,39.0818865036852
4.07059252308199,-13.2756116748388,-10.3551973100092,2.17801897448991,-27.8232741223454,-31.1043012767497,-0.958190957706748,49.8538305678874,-2.62334017958395,-48.9529922287552,39.0705270834726
4.39859870121407,-13.1807277044226,-10.3426843811154,2.11336915478215,-27.5346385312019,-31.0691720492596,-0.862378392494107,49.7922777855053,-2.63136335371019,-48.9421916294123,39.063431897237
4.73058665453104,-13.0773203032837,-10.328574169352,2.04799858937845,-27.219268737716,-31.0276129882134,-0.760773478156759,49.7131768803933,-2.64729120619391,-48.9317590240342,39.0605887074394
5.06508852493204,-12.9650629161516,-10.3128575488211,1.98201332976565,-26.8765586773715,-30.9789712444456,-0.653349384011687,49.6150745936991,-2.67151683364028,-48.9217658496991,39.0619370061914
5.40062426874781,-12.8436451735678,-10.2955410814978,1.91551263849544,-26.5060921198932,-30.92259283354,-0.540121969066875,49.4965937397148,-2.70433698829851,-48.9122689009748,39.0673690317873
5.73571481398746,-12.7127750831003,-10.2766458252642,1.84858817721745,-26.1076562172529,-30.8578310258372,-0.421154352326158,49.3564538748779,-2.74593909592861,-48.9033057283017,39.0767314655462
6.0688949143712,-12.5721812368399,-10.256205849711,1.78132314913607,-25.681252264406,-30.7840549659219,-0.29656082447316,49.1934907735455,-2.79638979857342,-48.8948902520142,39.0898277704155
6.39872551587902,-12.4216150131347,-10.2342665170354,1.71379137917464,-25.2271032997348,-30.7006584009838,-0.166509864718815,49.0066741417946,-2.85562555563448,-48.8870087386462,39.1064210885302
6.72380547692969,-12.2608527500209,-10.2108825847322,1.64605633541706,-24.7456582311851,-30.6070683980911,-0.0312260704812074,48.7951230399619,-2.92344582219547,-48.8796162813364,39.126237578388
7.04278250808949,-12.0896978667101,-10.1861161896708,1.57817011475924,-24.2375922431624,-30.5027539315476,0.109009137878428,48.5581185503496,-2.99950928245244,-48.8726339201622,39.1489700534908
7.35436322156183,-11.9079829076976,-10.1600347812225,1.51017243297956,-23.7038033186533,-30.3872342184776,0.253858114596749,48.2951133159239,-3.08333354351384,-48.8659465305484,39.1742817881324
7.65732220450569,-11.7155714822267,-10.1327090824715,1.44208967544919,-23.145404804719,-30.2600866701618,0.40292890315507,48.0057376865581,-3.17429859072444,-48.8594016036365,39.2018103839203
7.95051005318527,-11.5123600697063,-10.1042111697279,1.3739340794909,-22.5637140607636,-30.1209543077417,0.5557784214158,47.6898023375318,-3.27165417293932,-48.8528090385113,39.2311716349922
8.23286032669338,-11.2982796585688,-10.0746127676446,1.30570313016057,-21.9602373548867,-29.9695524675369,0.71191681190268,47.3472973629146,-3.37453112815807,-48.8459420488876,39.2619633762992
8.50339539911822,-11.0732971829214,-10.0439838561548,1.23737925326859,-21.3366513039095,-29.8056746018574,0.870812798175811,46.9783879831405,-3.48195648091379,-48.8385392522844,39.2937693407988
8.76123120715043,-10.8374167205493,-10.0123916733972,1.16892987936177,-20.6947812750271,-29.6291969748631,1.03189984426745,46.583407130914,-3.59287195122747,-48.8303079718456,39.3261630919756
9.00558090591832,-10.5906804185987,-9.97990017644482,1.10030793054582,-20.0365772730976,-29.4400820635552,1.19458288490801,46.1628452851033,-3.70615532545408,-48.8209287516931,39.3587121381936
9.23575745903316,-10.3331691188791,-9.94656999362543,1.03145275242032,-19.3640879224448,-29.2383804999284,1.35824538319941,45.7173380035814,-3.82064397130295,-48.8100610591878,39.390982363113
9.45117519926294,-10.0650026619243,-9.91245887487235,0.96229148118678,-18.6794332101128,-29.0242314295238,1.52225648132813,45.2476516592573,-3.93515965185627,-48.7973501098505,39.4225429102886
9.65135040389027,-9.78633985697361,-9.87762262397914,0.892740805593593,-17.9847766824833,-28.7978612134707,1.68597803753805,44.7546679063626,-4.04853371913371,-48.7824347073539,39.4529716421364
9.83590093373899,-9.49737811351627,-9.84211647831051,0.822709058293061,-17.282297777565,-28.5595804632455,1.84877138333946,44.2393673967546,-4.15963175023886,-48.7649559562313,39.4818612627293
10.004544987305,-9.19835273900383,-9.80599688396176,0.752098554019195,-16.5741649364806,-28.309779463952,2.0100036822307,43.7028132321263,-4.26737672717319,-48.7445666813263,39.5088261524273
10.1570990217679,-8.88953591704452,-9.76932359546823,0.680808083785536,-15.8625100767372,-28.0489221060591,2.16905382057964,43.1461345828669,-4.3707699525426,-48.7209413629131,39.5335099044637
10.2934748913906,-8.57123539084177,-9.73216201029224,0.608735474262743,-15.1494049307793,-27.7775385018886,2.32531780890067,42.5705108332607,-4.46890903132943,-48.6937863588549,39.5555934762913
10.4136762515405,-8.24379288653856,-9.69458563255195,0.53578012804392,-14.4368396591378,-27.496216508201,2.47821371167764,41.9771565314335,-4.56100242140236,-48.6628501400052,39.5748037790667
10.5177942739822,-7.90758231770985,-9.65667855049288,0.46184547214351,-13.7267040447498,-27.2055924081066,2.62718614961156,41.3673073385356,-4.64638024682982,-48.627933228063,39.5909224407892
10.6060027169253,-7.56300781296182,-9.61853780949037,0.386841256962111,-13.0207714732474,-26.9063410239958,2.7717104267274,40.7422070943333,-4.72450126165666,-48.588897502781,39.6037944002065
10.6785523922948,-7.21050160374485,-9.58027556706788,0.310685663071053,-12.3206858102377,-26.5991655388524,2.91129633013635,40.1030960520332,-4.79495603094435,-48.5456745272039,39.6133359191396
10.7357650734988,-6.85052180209736,-9.54202092768358,0.233307184922507,-11.6279512021549,-26.2847872964991,3.04549164185638,39.4512002832695,-4.85746654661234,-48.4982725161943,39.6195415438855
10.7780268901473,-6.48355009077822,-9.50392137120518,0.154646266787594,-10.9439247509502,-25.9639358326498,3.1738853970377,38.7877222107444,-4.91188260951587,-48.4467815561109,39.6224895168258
10.8057812621192,-6.11008934163862,-9.46614370734409,0.0746566674963096,-10.2698119458498,-25.6373393608577,3.29611092024362,38.1138321903774,-4.95817538407775,-48.3913766977958,39.6223451539052
10.8195214342302,-5.73066117189202,-9.42887450609643,-0.00669347034825296,-9.60666468097124,-25.3057159049029,3.41184866509611,37.4306610405466,-4.99642857039021,-48.3323186084371,39.6193617663574
10.8197826844058,-5.34580344290231,-9.39231997066384,-0.0894208709552441,-8.95538164674192,-24.9697652355061,3.52082886618647,36.7392934069203,-5.026827645746,-48.2699515737965,39.6138788039794
10.8071342922884,-4.95606770345651,-9.35670523489665,-0.173526716259519,-8.31671085283096,-24.6301617377326,3.62283398093832,36.0407618589839,-5.04964760852398,-48.2046987675554,39.6063170163205
10.7821713708568,-4.56201657894359,-9.3222730813782,-0.258996587844231,-7.69125401832036,-24.2875483095342,3.71770085438447,35.3360416367129,-5.06523962032114,-48.1370548306064,39.5971705626095
10.74550667987,-4.16422110715321,-9.28928208830366,-0.345800753517861,-7.07947255406199,-23.9425313708924,3.80532249095719,34.6260459977823,-5.07401689723947,-48.0675759261825,39.586996156371
10.6977625554302,-3.76325801883337,-9.25800422640484,-0.433894770571353,-6.4816948672616,-23.595677039901,3.88564927669329,33.9116221515945,-5.07644015677543,-47.9968675601937,39.5763995058189
10.6395631031847,-3.35970695820013,-9.22872194602883,-0.523220358245803,-5.89812473817526,-23.2475085001482,3.95868947407877,33.1935478017409,-5.07300288977691,-47.9255705809876,39.566019492357
10.5715268120255,-2.95414763915325,-9.20172481880787,-0.613706481464393,-5.32885054644147,-22.8985045437928,4.02450881957507,32.4725283488477,-5.06421670384573,-47.8543458904295,39.5565106949062
10.4942597489995,-2.54715694013523,-9.17730582141702,-0.705270588451794,-4.7738551525981,-22.5490992345103,4.08322909255181,31.7491948271496,-5.05059697738525,-47.7838584873473,39.5485249918598
10.4083494930834,-2.13930595436893,-9.15575736277697,-0.7978199526518,-4.23302626345351,-22.1996826040145,4.13502558365466,31.0241026596578,-5.03264906706699,-47.7147614998427,39.5426930319574
10.3143599544001,-1.73115702953997,-9.13736715688925,-0.891253078435804,-3.70616712555715,-21.8506022823556,4.18012345472395,30.2977313204592,-5.01085531639525,-47.6476808355869,39.5396063526898
10.2128272057037,-1.32326084808806,-9.12241403315974,-0.985461137038728,-3.19300740022661,-21.502165964046,4.21879304049623,29.5704849902137,-4.98566310947906,-47.5832010025608,39.5398008546634
10.1042564245004,-0.916153613805199,-9.11116376095356,-1.08032940447617,-2.69321408014078,-21.154644618109,4.25134419236898,28.8426942811953,-4.95747419579958,-47.521852546815,39.5437422333984
9.98912000760214,-0.5103544209457,-9.10386495262987,-1.17573867897866,-2.20640231349799,-20.8082763483372,4.27811980971661,28.114619088133,-4.92663548056363,-47.4641014294867,39.5518138357577
9.86785687655723,-0.106362886769322,-9.10074510330577,-1.27156666252242,-1.73214600614602,-20.4632707965866,4.29948874657461,27.3864525886592,-4.89343143934233,-47.4103405281537,39.5643072507347
9.74087294423104,0.295342873695439,-9.10200682416059,-1.36768929826518,-1.26998807421467,-20.1198139611976,4.31583831711297,26.6583263744346,-4.8580782808167,-47.3608833089663,39.5814157776161
9.60854266235783,0.694307859776198,-9.1078243239972,-1.46398206119029,-0.819450221965707,-19.7780732817079,4.32756664495522,25.9303166468981,-4.8207199472147,-47.315959592952,39.6032307615134
9.47121152007583,1.09010132459908,-9.11834018754887,-1.56032120074196,-0.380042124552544,-19.4382028267339,4.33507510470122,25.2024513669163,-4.78142600795185,-47.2757132459006,39.6297406640506
9.32919931740335,1.48231739568403,-9.13366248928087,-1.65658492969048,0.0487300961455788,-19.1003484200444,4.33876108944374,24.4747182108181,-4.7401914715201,-47.2402015614359,39.6608326495971
9.1828039983833,1.87057514664076,-9.15386227135727,-1.75265454306002,0.467356200820774,-18.764652552076,4.33901130893963,23.7470731600625,-4.696938515964,-47.2093960844646,39.6962964133135
9.03230579901152,2.25451810999247,-9.17897140756211,-1.848415438635,0.876315042695614,-18.4312589453043,4.33619578534681,23.0194495392716,-4.65152011532387,-47.1831846407691,39.7358299551181
8.87797144738747,2.63381324487612,-9.20898087409651,-1.94375800278452,1.27606870087024,-18.1003166626933,4.33066267550481,22.2917673157507,-4.60372551136445,-47.1613743925215,39.7790470070684
8.72005814946225,3.00814939883558,-9.24383945468308,-2.0385783269654,1.66705754125378,-17.7719836618613,4.32273401665521,21.5639424801693,-4.55328744252824,-47.1436958082615,39.8254858355673
8.55881710424029,3.37723532908896,-9.28345292041225,-2.13277873113148,2.04969617132521,-17.4464297039818,4.31270246515825,20.8358963417025,-4.49989099529108,-47.1298074934704,39.8746191495499
8.39449631745719,3.74079737562461,-9.32768374042861,-2.22626808602095,2.42437022266934,-17.1238385331915,4.30082906967637,20.1075645911471,-4.44318389080046,-47.1193018596692,39.9258648468344
8.22734252195031,4.09857690433288,-9.3763513918057,-2.31896194237888,2.79143387250457,-16.8044092567795,4.28734208827514,19.3789060100422,-4.38278796821742,-47.1117116198955,39.9785973279057
8.05760206475053,4.45032765776148,-9.42923333974406,-2.4107824895202,3.15120800487227,-16.4883568802906,4.27243682348664,18.6499107291755,-4.31831158148106,-47.1065170968038,40.0321591057175
7.88552068324543,4.79581315823817,-9.48606674844898,-2.50165837759317,3.50397891428954,-16.1759119833333,4.25627641188343,17.9206079642072,-4.24936259230896,-47.1031543167437,40.0858724452216
7.71134216286442,5.13480430074406,-9.54655095736537,-2.5915244461507,3.84999746813823,-15.8673195614507,4.23899346685032,17.1910731792232,-4.17556162317546,-47.1010238334294,40.1390507806033
7.5353059433295,5.46707725347434,-9.61035071928902,-2.6803214040621,4.18947866615769,-15.5628371067531,4.22069243935836,16.4614346493512,-4.09655523345445,-47.0995001838275,40.191009686257
7.35764381584067,5.79241175812595,-9.6771001525706,-2.76799550124951,4.52260156207548,-15.262732050418,4.20145253743522,15.7318794079222,-4.0120286994374,-47.0979418424184,40.2410772224808
7.17857592548137,6.11058989471954,-9.74640731683346,-2.85449822253723,4.84950953894201,-14.9672787352709,4.18133103455823,15.0026585699566,-3.92171810912979,-47.0957015176789,40.2886035357143
6.99830635724198,6.42139534941486,-9.81785928670239,-2.93978602105139,5.17031095065282,-14.6767551178021,4.160366800876,14.274092023472,-3.82542151854396,-47.0921366261935,40.3329696563404
6.81701863590656,6.7246131994239,-9.89102757574258,-3.0238200956199,5.48508015072654,-14.3914394087205,4.1385839063551,13.5465724766206,-3.72300895091888,-47.0866197841267,40.3735954943245
6.6348715053599,7.02003020905934,-9.96547375600953,-3.1065662047042,5.79385892135089,-14.1116068464823,4.11599516619236,12.8205688439057,-3.61443104830238,-47.0785491716206,40.4099470782888
6.45199536790691,7.30743561695336,-10.0407551269079,-3.18799449913359,6.09665829460933,-13.8375267638064,4.09260552020348,12.096628948168,-3.49972620470614,-47.0673586447205,40.4415431136227
6.26848975614367,7.58662238541111,-10.1164303073039,-3.26807934792044,6.39346073330392,-13.5694600615642,4.06841515719852,11.375381505186,-3.37902602594603,-47.05252748025,40.4679609462286
6.0844221773239,7.85738887599833,-10.1920646527429,-3.34679912647124,6.68422261844088,-13.307657153609,4.04342231490384,10.6575373436689,-3.25255897983901,-47.0335896409815,40.488842010269
5.89982861330981,8.11954090884448,-10.2672354296063,-3.42413593572382,6.96887697631854,-13.05235639412,4.0176257084437,9.94388979557213,-3.12065212520185,-47.0101424528316,40.5038968175532
5.71471588037599,8.37289415543609,-10.341536703218,-3.50007522546806,7.24733637053748,-12.8037829519927,3.99102656477229,9.23531417190762,-2.98373083873186,-46.9818545999784,40.5129095210236
5.52906595672093,8.61727680442601,-10.4145839116389,-3.57460530586265,7.51949588436563,-12.5621480617595,3.96363026311116,8.53276622002977,-2.84231649343788,-46.9484733621848,40.5157420577811
5.34284227779994,8.85253242696059,-10.4860180994337,-3.64771674685159,7.78523612720904,-12.3276485609202,3.93544759966151,7.83727944141539,-2.69702207978004,-46.9098310299055,40.5123378453143
5.15599788823269,9.07852295470329,-10.555509778423,-3.71940168289299,8.04442621366763,-12.1004666180002,3.90649570838191,7.14996113472719,-2.54854580201197,-46.8658504272495,40.5027249633401
4.96848523250744,9.29513167388446,-10.6227623693761,-3.78965305611111,8.29692668217153,-11.8807695611759,3.87679867997215,6.47198701845538,-2.3976627304125,-46.8165494448638,40.4870187006323
4.78026727334984,9.50226613439121,-10.6875151627859,-3.85846384102689,8.54259234067999,-11.6687097325792,3.84638793066928,5.80459428427752,-2.24521464785002,-46.7620444371818,40.4654232850646
4.59132955381161,9.6998608737428,-10.7495457206869,-3.92582629638859,8.78127504698716,-11.4644243167791,3.8153023822373,5.14907294209057,-2.09209829459893,-46.7025522842266,40.4382325575552
4.40169277248461,9.88787986095541,-10.8086716296332,-3.99173128433113,9.01282644602473,-11.2680351172101,3.78358852252918,4.50675534483973,-1.9392522805152,-46.6383908749314,40.4058293143994
4.21142542408099,10.0663185751924,-10.8647515151224,-4.05616768619892,9.2371006908696,-11.0796482714797,3.75130041692536,3.87900382727911,-1.78764298771458,-46.5699777535568,40.3686830414325
4.02065607069977,10.2352056495086,-10.9176852463241,-4.11912193157613,9.45395716643575,-10.8993538992247,3.71849972982906,3.26719645736083,-1.63824982121435,-46.4978266942521,40.3273457975775
3.82958485061713,10.3946040300289,-10.9674132969484,-4.18057764613805,9.66326321879265,-10.7272256674569,3.6852557910621,2.67271098089892,-1.49205017754631,-46.422542028605,40.2824460649049
3.63849389719114,10.5446116224313,-11.013915276382,-4.24051541733976,9.86489687512609,-10.563320247459,3.65164570830336,2.0969071360641,-1.35000449610321,-46.3448106306542,40.2346804603807
3.44775642403754,10.6853614169796,-11.0572076939934,-4.29891267585108,10.0587495247245,-10.4076766333109,3.61775449083858,1.54110761701279,-1.21304173873963,-46.2653915469029,40.1848032977685
3.25784432529356,10.8170210982706,-11.0973410583644,-4.35574369475558,10.2447285217548,-10.260315299788,3.58367512008491,1.00657806545421,-1.08204561082158,-46.1851033445329,40.1336140880369
3.06933422987103,10.9397921557634,-11.1343964361142,-4.41097971523168,10.4227596651212,-10.1212371961956,3.54950848580112,0.494506554257163,-0.957841794514764,-46.104809350973,40.0819431604952
2.88291201981727,11.0539085164842,-11.1684816019475,-4.46458921238903,10.592789508542,-9.99042259795095,3.5153631069173,0.00598308913921445,-0.841186418415104,-46.0254010767483,40.0306356721131
2.69937585108947,11.1596347230443,-11.1997269069911,-4.51653831474883,10.7547874548325,-9.86782986310942,3.48135457000322,-0.458020311457462,-0.732755938583611,-45.9477802360959,39.9805343582513
2.51963766271825,11.2572636799001,-11.2282809819872,-4.56679138489624,10.9087475911725,-9.75339416149755,3.44760464084997,-0.896668391084491,-0.633138552286818,-45.872839883571,39.9324614695814
