Finger Velocity,Scap_X,Scap_Y,Scap_Z,Shoulder horiz abd-adduction,Shoulder flexion-extension,Shoulder internal-external rotation,elbow flexion-extension,forearm pronation-supination,wrist flexion-extension,wrist radial-ulnar deviation
1.31584963094164,-18.2322768581777,-10.9261001867076,-1.18134776533454,-21.0316982834618,-32.8930132285559,8.49178729818767,44.0028152447359,-5.67881615899309,-58.4583156175591,46.3933362998102
1.62157106411923,-18.2174711183944,-10.913631180239,-1.17878885636447,-21.0706411128495,-32.8734064729357,8.41646644494917,44.149346826224,-5.44207861375792,-58.0496687017915,45.8298545127839
1.95581534752936,-18.1995433277436,-10.9008570840032,-1.17620560934605,-21.106100684603,-32.8486761481722,8.33691790695004,44.3135341294122,-5.17660225024964,-57.5785361748912,45.2016366336616
2.31762422891161,-18.1781352480499,-10.8878762082831,-1.17358578555779,-21.1370207600279,-32.818139059772,8.25324141370247,44.496312601662,-4.88058194262107,-57.042976499422,44.507890252856
2.70599251187925,-18.1528820586317,-10.8747862630075,-1.17092017155615,-21.1623149087408,-32.7810811144824,8.1655413489777,44.6985745451085,-4.55226816790527,-56.4415482874151,43.7483300465252
3.11979904559351,-18.123415957603,-10.8616817627055,-1.16820449926403,-21.1808831675218,-32.7367611077303,8.07392196561995,44.9211640567922,-4.18999182768688,-55.7732968883755,42.9231509622821
3.55777904418281,-18.0893699958865,-10.8486513991278,-1.1654416148593,-21.1916299436082,-32.6844149966833,7.97848289451032,45.1648723600385,-3.7921913968897,-55.0377311092043,42.0329942758369
4.01851805522469,-18.050382077042,-10.8357754642424,-1.1626438558809,-21.1934827787571,-32.6232606283331,7.87931519085811,45.4304334258991,-3.35744210887315,-54.234793156526,41.0789099043532
4.50045839668133,-18.006099048147,-10.8231234073068,-1.15983558607027,-21.1854115433828,-32.5525028773704,7.77649814391163,45.7185197851386,-2.8844867076235,-53.3648250997437,40.0623182857836
5.00191333925221,-17.9561808013298,-10.8107516072441,-1.15705582831016,-21.1664475915283,-32.4713391340365,7.67009704518946,46.029738448699,-2.37226710738518,-52.4285351892501,38.9849748565942
5.52108631565868,-17.9003043023544,-10.7987014346116,-1.15436092811209,-21.1357023776029,-32.3789650713789,7.56016206948251,46.3646268828768,-1.81995611115385,-51.4269672318637,37.8489397338005
6.056093381047,-17.8381674620045,-10.7869976663463,-1.15182717258737,-21.0923850172399,-32.2745806163269,7.44672837679787,46.7236490178644,-1.22698816568754,-50.3614759042826,36.6565546589121
6.60498760778794,-17.7694927676218,-10.7756473025984,-1.1495532815653,-21.0358182723658,-32.1573960488626,7.32981749622755,47.1071912992916,-0.593087985168123,-49.2337103564988,35.4104286027296
7.16578433001334,-17.69403059554,-10.7646388195546,-1.14766267945735,-20.9654524603255,-32.0266381561647,7.20944000905367,47.5155588189396,0.0817042278778211,-48.0456077187751,34.1134326656447
7.73648627925826,-17.611562130043,-10.7539418761243,-1.14630545178338,-20.8808768326608,-31.881556372007,7.08559951301602,47.9489715826447,0.797012281111459,-46.7993971928366,32.7687040462057
8.3151077331168,-17.5219018212467,-10.7435074770778,-1.14565989175915,-20.7818280410988,-31.7214288341392,6.95829782383655,48.4075609924179,1.55210949430588,-45.4976143215671,31.379657919627
8.89969686594449,-17.4248993242203,-10.7332685817341,-1.14593355088337,-20.6681954021217,-31.5455682930977,6.82754134923202,48.8913666380177,2.34591135720275,-44.1431238802897,29.9500051341916
9.48835556220546,-17.3204408764296,-10.7231411347061,-1.14736372246849,-20.540022780152,-31.3533278058651,6.69334854641597,49.4003335102069,3.17697625337782,-42.7391487513252,28.4837728007449
10.0792560392603,-17.2084500910172,-10.7130254816794,-1.15021730672348,-20.3975070261007,-31.1441061486726,6.55575833846248,49.9343097600405,4.04351481032734,-41.2893012739408,26.9853242335239
10.670653732806,-17.0888881683503,-10.7028081185148,-1.15479002758631,-20.2409930266098,-30.9173528852215,6.41483931346,50.493045130342,4.94340800007483,-39.7976130073131,25.4593743933228
11.2608960271902,-16.9617535546391,-10.6923637081932,-1.16140499266252,-20.0709655332988,-30.6725730287589,6.27069946405172,51.0761901724451,5.87423362897837,-38.2685586484648,23.9109970376985
11.8484265641935,-16.8270811005078,-10.6815572898297,-1.17041060709251,-19.888038045486,-30.409331238848,6.12349615058992,51.6832963316656,6.83330036604291,-36.7070700009749,22.3456201976886
12.431785035014,-16.6849407910679,-10.6702465988679,-1.18217786910421,-19.6929391118771,-30.1272554982427,5.97344590147704,52.313816939969,7.81768801103578,-35.1185363497732,20.7690073292177
13.0096025462336,-16.5354361309427,-10.6582844175333,-1.19709708818813,-19.4864964963345,-29.8260402239165,5.82083361573396,52.9671090959745,8.82429233205472,-33.5087882990915,19.1872224481448
13.5805928445407,-16.3787022729889,-10.6455208777088,-1.21557407535189,-19.2696197192304,-29.5054487785002,5.66602071847184,53.6424363442136,9.84987253386659,-31.8840630007155,17.6065786492758
14.1435398781287,-16.214903978689,-10.6318056423569,-1.2380258596318,-19.0432815361526,-29.1653153610268,5.50945184137366,54.3389719951546,10.8910992792014,-30.2509496673684,16.0335705277513
14.6972823547927,-16.044233491645,-10.6169898961744,-1.26487598853192,-18.8084989453908,-28.8055462651977,5.351659646933,55.0558028673424,11.9446011963713,-28.6163152907902,14.47479208498
15.2406961169301,-15.8669083939663,-10.6009280828317,-1.29654947493494,-18.5663143212906,-28.4261204972889,5.1932674732996,55.7919331957243,13.0070079740853,-26.9872115798666,12.9368426763984
15.772675281145,-15.6831695002651,-10.5834793359469,-1.33346746020493,-18.3177772525786,-28.0270897451311,5.03498953987401,56.5462884444661,14.0749884549324,-25.3707653506228,11.4262244452363
16.2921131753439,-15.4932788280473,-10.5645085633903,-1.37604167160913,-18.0639276261037,-27.6085776878596,4.87762852614263,57.3177187916334,15.1452825623862,-23.7740559382446,9.94923545838084
16.7978841415699,-15.2975176693041,-10.5438871585136,-1.42466876011874,-17.8057804381743,-27.1707786378067,4.72207042425208,58.1050021149267,16.2147263878564,-22.2039845332049,8.51186331296965
17.2888272538574,-15.0961847781058,-10.5214933269266,-1.47972461129432,-17.5443127359649,-26.7139555133712,4.56927666965416,58.9068463949443,17.2802702723725,-20.6671414420682,7.1196841832583
17.7637329262585,-14.8895946834001,-10.4972120332039,-1.54155872754522,-17.2804529897952,-26.2384371544915,4.42027366717172,59.7218915539673,18.3389901927578,-19.1696779376935,5.77777207770277
18.221333260003,-14.6780761340197,-10.4709345873967,-1.61048878475891,-17.0150730784089,-25.7446150099418,4.27613994378183,60.548710851691,19.3880931648371,-17.7171894813886,4.4906225240976
18.6602968074593,-14.4619706818313,-10.4425579047703,-1.68679546992606,-16.7489829440461,-25.2329392488521,4.13799126613059,61.3858120534783,20.4249176784004,-16.3146166039023,3.26209403942036
19.079228224387,-14.2416314059854,-10.4119834825103,-1.77071770874168,-16.4829278547958,-24.7039143768161,4.00696415171112,62.2316386616773,21.4469303675635,-14.9661685859429,2.0953695718846
19.4766730535228,-14.0174217739684,-10.3791161435446,-1.86244839268792,-16.217588108859,-24.1580944664674,3.88419827110953,63.0845715476524,22.4517201984408,-13.67527335507,0.992938674082224
19.8511276456499,-13.7897146237531,-10.3438625994612,-1.96213071202439,-15.9535809335212,-23.5960781407498,3.77081828099284,63.9429313364801,23.4369914364574,-12.4445549529098,-0.043400356158079
20.2010539928058,-13.5588912391532,-10.3061298813024,-2.06985519208825,-15.6914642706099,-23.0185034717348,3.66791564101031,64.8049818790734,24.4005565580482,-11.2758378586726,-1.01252051389076
20.5248990348383,-13.3253404819579,-10.265823679876,-2.1856575147255,-15.4317420992934,-22.4260429727185,3.57653095131644,65.6689351040918,25.3403301217776,-10.1701756816801,-1.91393149588769
20.8211178156982,-13.089457941871,-10.2228466294312,-2.3095171867323,-15.1748709259559,-21.8193988589826,3.49763730375813,66.5329574806677,26.2543244362631,-9.12790045299195,-2.74773426450143
21.0881997174558,-12.8516450672548,-10.1770965634567,-2.44135709576662,-14.9212670675705,-21.1992987320473,3.43212507506378,67.3951782466573,27.1406476697659,-8.14868803762082,-3.51456866822801
21.3246968928312,-12.6123082426037,-10.1284647696822,-2.58104397234846,-14.6713143664016,-20.5664918106084,3.3807885107044,68.2536994691342,27.9975048423567,-7.23163502308147,-4.21555772517069
21.5292539527905,-12.3718577798201,-10.0768342722551,-2.72838975391751,-14.4253719980906,-19.9217457956258,3.34431435781775,69.1066079088135,28.8232019299504,-6.37534268626319,-4.85225158978503
21.700637943538,-12.130706789636,-10.0220781731795,-2.88315382381716,-14.1837820699224,-19.2658444189191,3.3232727093134,69.9519885632369,29.6161530988079,-5.57800412086867,-5.42657348974776
21.8377676638752,-11.8892698990509,-9.96405809372172,-3.04504607658267,-13.9468767460519,-18.5995856850661,3.31811012630626,70.787939669998,30.3748908876098,-4.83749117140471,-5.94076916218968
21.9397414246001,-11.6479617827347,-9.90262276843248,-3.21373074396176,-13.7149846756716,-17.9237807786928,3.32914502151678,71.6125888661614,31.0980789659112,-4.15143840310943,-6.39736060665353
22.0058624305692,-11.4071954818278,-9.83760685615084,-3.38883090521863,-13.4884365375376,-17.2392535752434,3.35656521922742,72.4241101283053,31.7845269268487,-3.51732194368164,-6.79910432738988
22.0356610669148,-11.1673804921612,-9.76883004074202,-3.56993359916251,-13.26756955428,-16.546840660842,3.40042755954139,73.2207410638627,32.4332064276045,-2.93253163738479,-7.14895369021443
22.0289134873742,-10.9289206152662,-9.69609649857087,-3.75659545146909,-13.0527308760941,-15.8473917327667,3.46065938291958,74.0008000925868,33.0432678842724,-2.39443546004742,-7.45002463211726
21.9856560287171,-10.6922115793572,-9.61919481031604,-3.94834872755144,-12.8442797835148,-15.141770217035,3.5370617102314,74.7627030486568,33.6140568645266,-1.90043547142678,-7.70556377813038
21.9061951054006,-10.45763845304,-9.53789839138865,-4.14470771693016,-12.6425887071242,-14.4308539090968,3.62931392018468,75.5049787477759,34.145129302747,-1.44801474643853,-7.91891801849286
21.7911123680835,-10.2255728904986,-9.45196650658091,-4.34517534693104,-12.448043103876,-13.7155354240141,3.736979718748,76.2262830967492,34.6362646870461,-1.03477482614904,-8.09350471945407
21.6412650345078,-9.99637026167396,-9.36114591987164,-4.54924990909385,-12.2610402642129,-12.9967222372992,3.85951419320551,76.925411373168,35.0874764337398,-0.658463361766811,-8.23278192748136
21.4577814183035,-9.77036673285341,-9.26517321009884,-4.75643176226529,-12.0819871511852,-12.2753361084124,3.99627174521608,77.6013083683925,35.4990187679768,-0.31699184468276,-8.34021814234386
21.242051788024,-9.54787637076732,-9.16377775848436,-4.96622985778531,-11.9112973920835,-11.552311706681,4.14651470170026,78.2530761655043,35.8713895651204,-0.0084436262018094,-8.41926145855443
20.9957147834184,-9.32918834570009,-9.05668538610265,-5.17816792121988,-11.7493875549566,-10.82859430255,4.30942241066563,78.8799794105083,36.2053287717705,0.268927207737251,-8.47330809803657
20.7206396974721,-9.11456430596458,-8.94362259049252,-5.39179012613193,-11.5966728475257,-10.1051364413039,4.48410064535071,79.4814480234315,36.5018122098407,0.516705186357668,-8.50567057473069
20.4189050005449,-8.9042359882319,-8.82432130312709,-5.6066661104786,-11.453562374934,-9.38289357686185,4.66959117042365,80.0570773802337,36.7620407591849,0.736329804688399,-8.51954593622785
20.0927735370221,-8.69840311755614,-8.69852406474515,-5.82239521579503,-11.320454086933,-8.66281870546768,4.86488137079054,80.6066260725275,36.9874251025069,0.929117423493396,-8.51798470706732
19.7446648657177,-8.49723163964369,-8.56598949384775,-6.03860987089824,-11.1977295372272,-7.94585609912076,5.06891389931054,81.1300114173382,37.1795663931934,1.09628711921426,-8.50386129709124
19.3771252437736,-8.30085231720799,-8.42649790502618,-6.25497808869845,-11.0857485694774,-7.23293429409695,5.28059634905794,81.6273029407596,37.3402333640286,1.23898880793522,-8.47984671668983
18.9927957712847,-8.10935971172887,-8.27985691879126,-6.47120508766685,-10.9848440359889,-6.5249585395598,5.49881098493153,82.0987140943967,37.471336522377,1.35833195285351,-8.4483844498033
18.5943792220165,-7.92281156058475,-8.12590689410987,-6.68703408129882,-10.8953166467991,-5.82280295356362,5.72242457271961,82.5445924808947,37.5749001675903,1.45541322647516,-8.41167028725653
18.1846060863114,-7.74122854773597,-7.96452600963948,-6.90224629747583,-10.8174300388795,-5.12730266778024,5.95029832464244,82.9654088662489,37.6530330145159,1.53134166644718,-8.37163683768581
17.7662003477095,-7.56459445635558,-7.79563482014715,-7.11666029758959,-10.7514061459309,-4.43924626697924,6.18129794874106,83.3617452447687,37.7078982112671,1.58726013638765,-8.32994331812304
17.3418455070991,-7.39285668695259,-7.61920012141741,-7.33013066676484,-10.6974209378804,-3.75936884019606,6.41430375525025,83.7342822019458,37.741683505565,1.62436222332107,-8.28797107072718
16.914151359375,-7.22592712579433,-7.43523797142032,-7.54254614494662,-10.655600587814,-3.08834595041794,6.64822074089239,84.0837857981933,37.7565722556454,1.64390400063275,-8.24682504403686
16.4856220192428,-7.06368335413343,-7.24381573972621,-7.75382726625381,-10.6260181155376,-2.42678879445,6.88198854185476,84.4110941789624,37.7547159103391,1.64721033120587,-8.20734122294635
16.0586256859629,-6.90597019498728,-7.04505309258738,-7.96392357200179,-10.6086905521334,-1.77524076772345,7.11459111769449,84.7171041049194,37.7382084990469,1.63567559655352,-8.17009972008701
15.6353666315026,-6.75260159735728,-6.83912186622102,-8.17281046188874,-10.6035766680059,-1.13417557852922,7.34506600320265,85.0027575846282,37.7090635708085,1.61075894356835,-8.13544298841528
15.2178598916105,-6.60336285695822,-6.6262448307613,-8.38048574917841,-10.610575307444,-0.50399697958834,7.57251294740357,85.2690287759704,37.6691939042573,1.57397435710134,-8.10349840783315
14.8079091321871,-6.45801316987551,-6.40669339691967,-8.58696599046642,-10.6295243753575,0.114959895068119,7.79610175379512,85.5169113013721,37.6203941903036,1.52687609488559,-8.07420434932709
14.407088150062,-6.31628851332431,-6.18078436259541,-8.79228266895779,-10.6602005247953,0.722425679609492,8.01507914825523,85.7474061022854,37.5643267830134,1.47104025951772,-8.04733872817124
14.0167264428233,-6.17790484558964,-5.94887583271532,-8.99647832074263,-10.7023195936228,1.3181925736843,8.22877453110783,85.9615099464198,37.5025105286122,1.40804352150584,-8.0225490196594
13.6378992409736,-6.04256161325691,-5.71136246731029,-9.19960270271965,-10.7555378331921,1.90210899814814,8.43660451193512,86.1602046959318,37.436312616093,1.33944020914984,-7.99938272280746
13.2714223319939,-5.90994554687513,-5.46867021920925,-9.40170910369571,-10.8194539628045,2.47407334837383,8.63807617174933,86.3444474399314,37.3669433433597,1.26673908698581,-7.9773173120994
12.9178519158042,-5.77973471659808,-5.22125071845835,-9.60285089465613,-10.8936120749448,3.03402710104487,8.83278904222514,86.5151615856489,37.295453661021,1.19138112052777,-7.95578880333982
12.5774896130955,-5.65160280770176,-4.96957545296153,-9.80307840276514,-10.9775054086923,3.58194754372862,9.02043583355163,86.6732289897378,37.2227353407082,1.11471937133958,-7.93421816887194
12.2503926041116,-5.52522356265918,-4.7141298896631,-10.0024361792295,-11.0705809994212,4.11784040771365,9.20080197649783,86.8194831974158,37.1495236092237,1.03800189664758,-7.91203497148891
11.9363887118142,-5.40027532242813,-4.45540767931713,-10.2009607131264,-11.1722451984116,4.64173268937803,9.37376406341508,86.954703844523,37.0764020839541,0.962358176455159,-7.88869775165601
11.6350960700686,-5.27644558591102,-4.19390508695183,-10.3986786201428,-11.2818700351075,5.15366593761439,9.53928727299705,87.0796122659853,37.0038098303738,0.888789231689497,-7.86371089461397
11.3459468476335,-5.15343549512941,-3.93011578314413,-10.5956053085849,-11.3988003676592,5.65369025938812,9.697421847922,87.194868341618,36.9320503356355,0.81816130860576,-7.83663790062045
11.0682143466872,-5.03096414734228,-3.66452611250357,-10.7917440993101,-11.5223617337803,6.14185925095798,9.84829867225202,87.3010685936881,36.8613021564096,0.751202819420865,-7.80711115693391
10.8010426738914,-4.90877263596161,-3.39761092365163,-10.9870857552298,-11.6518687746889,6.61822600244624,9.99212397605729,87.3987455279934,36.7916309622828,0.688504129539773,-7.77483845033716
10.5434781030626,-4.78662772891159,-3.12983000360539,-11.181608361776,-11.7866340641302,7.08284025616268,10.1291731822743,87.4883681814045,36.7230026655639,0.630519740961136,-7.7396065631419
10.29450121719,-4.6643251038005,-2.86162511724728,-11.3752774928919,-11.9259771386712,7.53574673389674,10.2597839046198,87.5703438059931,36.6552973086588,0.577572426273358,-7.70128236492967
10.0530589341006,-4.54169207222492,-2.593417617902,-11.568046597155,-12.0692335011107,7.97698459395961,10.3843481054141,87.6450205869017,36.5883233750536,0.529858912365877,-7.6598118445237
9.81809557949864,-4.41858973978575,-2.32560657251978,-11.759857544399,-12.2157633604255,8.406587939635,10.5033034328893,87.7126912624114,36.5218322022546,0.487456787094074,-7.61521752049623
9.58858226419253,-4.29491456337152,-2.05856733430434,-11.9506412838824,-12.364959879648,8.82458727483636,10.6171237855028,87.7735974932614,36.4555322023735,0.450332385275968,-7.56759462990427
9.36354393737023,-4.17059928285397,-1.7926504931749,-12.1403185801052,-12.5162567233735,9.23101178339827,10.7263091968778,87.8279348154235,36.3891026303597,0.418349479505282,-7.51710643652561
9.14208361259702,-4.04561322078518,-1.52818113577946,-12.3288008097067,-12.6691347233693,9.62589228993573,10.8313751891954,87.8758580066766,36.3222066744138,0.391278643051608,-7.46397893304116
8.92340338673417,-3.91996196056501,-1.2654583495406,-12.5159908188269,-12.8231275100761,10.0092647426533,10.9328417898344,87.917486702322,36.2545036779469,0.368807166673403,-7.40849514218574
8.70682198562069,-3.79368642948427,-1.00475491106509,-12.7017838524406,-12.9778259889563,10.3811740471088,11.0312224376453,87.9529111074022,36.1856603415949,0.350549408923423,-7.35098915414609
8.49178866856053,-3.66686142698459,-0.74631711113048,-12.8860685761861,-13.1328815743359,10.7416780793107,11.1270130257464,87.9821976685905,36.1153607977431,0.336057458127576,-7.29183997808317
8.27789340397572,-3.53959365035781,-0.490364685007888,-13.0687282192546,-13.2880081295989,11.0908517145358,11.2206813459033,88.0053945858448,36.0433154922617,0.324831998345675,-7.23146524033824
8.06487329131667,-3.41201927938706,-0.237090832102619,-13.2496418739381,-13.4429826001799,11.4287907180686,11.3126572170002,88.0225370614917,35.969268839571,0.3163332994952,-7.1703147308015
7.85261525188827,-3.28430118615707,0.0133376814647152,-13.4286859898308,-13.5976443640749,11.7556153531977,11.4033235886079,88.0336522032431,35.8930056340162,0.309992278009452,-7.10886377883481
7.64115504754108,-3.15662583509358,0.26078033827427,-13.6057360936782,-13.7518933643988,12.0714735750397,11.493008900367,88.0387635178203,35.8143562075738,0.305221586045082,-7.04760643158599
7.43067271595138,-3.02919993248286,0.505122598726385,-13.7806687473612,-13.905687130092,12.376543700563,11.5819809458337,88.0378949531015,35.733200328357,0.301426681528508,-6.98704841517659
7.22148453967198,-2.90224687729109,0.746275532724099,-13.9533637296514,-14.0590368294427,12.6710364727692,11.6704424394277,88.0310744687144,35.6494698381517,0.298016811559993,-6.92769988274498
7.01403169863544,-2.77600305920661,0.984175335791409,-14.1237063997845,-14.2120025273283,12.9551964633851,11.7585284224053,88.0183371363185,35.5631500281717,0.294415811356916,-6.87006798345101
