Finger Velocity,Scap_X,Scap_Y,Scap_Z,Shoulder horiz abd-adduction,Shoulder flexion-extension,Shoulder internal-external rotation,elbow flexion-extension,forearm pronation-supination,wrist flexion-extension,wrist radial-ulnar deviation
1.12291695591996,-14.8679689624633,-9.58085477243899,4.24752208614154,-43.6564082419396,-37.1385807603974,-6.16645797241203,58.839824694394,-15.3580627995564,-48.831318582076,25.8340450247622
1.29605000725214,-14.8685613387074,-9.59477838821062,4.26261892227891,-43.6674491570295,-37.1270910308576,-6.17992154394684,58.8661644889332,-15.2191412120432,-48.5540591658242,25.5241144899261
1.47615337233199,-14.8698182859933,-9.61013190107911,4.27823079581004,-43.6780320147191,-37.1151802511952,-6.19257528985642,58.8985114496075,-15.0619687921494,-48.2214711393745,25.1501776704797
1.66205379284652,-14.8717434188394,-9.62688604178781,4.29428307928356,-43.6875714026795,-37.1030358345214,-6.20399707133617,58.9370348518778,-14.8859699954685,-47.8321318190984,24.7100852529435
1.85248721929598,-14.8743166054163,-9.64499619829428,4.3106983196405,-43.6954028512596,-37.0908635723629,-6.21374535029504,58.9818080288704,-14.6907193206726,-47.3857210720541,24.2027657714669
2.04611129613484,-14.8774910823981,-9.6644037449503,4.32739783392596,-43.700784680645,-37.078884312555,-6.22136551898649,59.0327969709478,-14.475951081073,-46.8831387975675,23.6283367705012
2.24152005450725,-14.8811909886177,-9.68503770719005,4.3443033400656,-43.7029013864206,-37.067330014905,-6.22639665041418,59.0898502988154,-14.2415671577445,-46.3265874899291,22.9881816902389
2.43726020861201,-14.8853094280747,-9.70681670112878,4.3613385910445,-43.7008686248714,-37.0564392218028,-6.228378532548,59.1526909994051,-13.9876427605914,-45.71961088581,22.2849842240182
2.63184858667107,-14.8897071639642,-9.72965107228068,4.37843098369801,-43.6937398310358,-37.0464519987355,-6.22685885164003,59.2209102896005,-13.7144302643182,-45.0670812106313,21.522713392733
2.82379028993541,-14.8942120332945,-9.75344514438706,4.39551311319799,-43.6805144723778,-37.0376044204778,-6.2214003946999,59.2939639367159,-13.422361196309,-44.3751300819146,20.7065550833314
3.01159720467748,-14.8986191564632,-9.77809948049956,4.41252424061916,-43.6601479097034,-37.0301227011666,-6.21158814639787,59.3711713187705,-13.1120464320722,-43.6510216256912,19.8427892350756
3.19380651165574,-14.9026919973401,-9.80351305541307,4.42941163477739,-43.6315628048711,-37.0242170890486,-6.19703616050712,59.4517174519368,-12.7842746078933,-42.9029705766164,18.9386159821436
3.36899885419574,-14.906164306657,-9.82958524157637,4.44613174208266,-43.5936619813183,-37.0200756686629,-6.17739408995179,59.5346581454794,-12.4400087026927,-42.1399126611834,18.0019384531378
3.53581584430905,-14.908742955752,-9.85621752005568,4.46265113170128,-43.5453426072626,-37.0178582325261,-6.15235326304842,59.6189283648883,-12.0803806862259,-41.3712388539118,17.0411140207503
3.69297660836606,-14.91011164066,-9.8833148440922,4.47894716157839,-43.4855115320766,-37.0176903975118,-6.12165219870666,59.7033537916578,-11.7066840908761,-40.6065085152984,16.0646889616022
3.83929310073634,-14.9099354094873,-9.91078660374281,4.49500831618913,-43.4131015644112,-37.0196581463226,-6.08508146198755,59.7866654639178,-11.3203643495537,-39.8551583863798,15.0811331766641
3.97368394579735,-14.9078659393991,-9.9385471629407,4.51083417824376,-43.3270884380469,-37.0238029732543,-6.04248777345318,59.8675172683061,-10.9230067622769,-39.1262245635049,14.0985915108566
4.0951866056487,-14.9035474634876,-9.96651596209005,4.52643501136876,-43.2265081712785,-37.0301178081076,-5.99377730055497,59.9445059355124,-10.5163220156724,-38.4280928888728,13.1246662953294
4.20296771233165,-14.8966232226241,-9.99461719876014,4.54183094711374,-43.1104744920098,-37.0385438826924,-5.9389180767742,60.0161930782472,-10.1021292814211,-37.7682900056149,12.1662423416046
4.29633144871306,-14.8867422941653,-10.0227791171482,4.55705078641518,-42.9781959770183,-37.0489686883123,-5.87794151316756,60.0811287104748,-9.68233704968289,-37.1533232109712,11.2293612932969
4.37472591066916,-14.873566629595,-10.0509329556768,4.57213044211492,-42.8289925404847,-37.0612251466455,-5.81094298441626,60.1378756088042,-9.25892199392644,-36.5885728164338,10.3191476223626
4.43774743388917,-14.8567781182493,-10.0790116214197,4.58711106434766,-42.6623109015541,-37.0750920802115,-5.73808148493996,60.185033826455,-8.83390629568146,-36.0782365331548,9.43978424160639
4.48514292050536,-14.8360854850863,-10.1069481767618,4.60203690317174,-42.4777386609696,-37.090296026029,-5.65957836030709,60.2212646504711,-8.40933396384805,-35.6253218749062,8.59453217933017
4.51681025274946,-14.8112308276736,-10.1346742337102,4.61695297141015,-42.2750166226077,-37.1065143926386,-5.57571512712141,60.2453133063026,-7.9872467491034,-35.2316800055442,7.78578633560889
4.53279693177118,-14.7819956016668,-10.1621183533777,4.631902575113,-42.0540490096046,-37.1233799193841,-5.48683040230323,60.2560297624629,-7.56966027297703,-34.89807297489,7.01515810267214
4.53329712840262,-14.7482058752734,-10.1892045440782,4.64692478032151,-41.8149112503105,-37.140486357832,-5.39331597032729,60.252387070673,-7.15854096577171,-34.624265820226,6.28357547296665
4.51864737772296,-14.709736691422,-10.2158509433386,4.6620518838704,-41.5578550483655,-37.1573952581547,-5.29561202411297,60.2334967865842,-6.75578434708427,-34.4091353503497,5.59139194655885
4.48932118940633,-14.666515400834,-10.2419687584363,4.67730695296239,-41.2833105024419,-37.1736437085485,-5.19420162172173,60.1986211408153,-6.36319510050639,-34.2507883012171,4.93849681280103
4.44592287954533,-14.6185238584274,-10.2674615287193,4.69270149311417,-40.99188510247,-37.1887528430638,-5.08960440722917,60.1471817585435,-5.98246930380687,-34.1466827017564,4.32442094976754
4.38918095526434,-14.5657994079733,-10.292224762692,4.7082332975522,-40.6843595004309,-37.2022369015139,-4.98236965178735,60.0787648518405,-5.61517908629808,-34.0937475308153,3.74843391982995
4.31994139895684,-14.5084346151475,-10.3161459932926,4.72388452478487,-40.3616800363725,-37.213612594848,-4.87306868323313,59.9931229286949,-5.2627598976529,-34.0884969634498,3.20962965830935
4.23916120178217,-14.4465757471379,-10.3391052832063,4.7396200460686,-40.0249480927084,-37.2224085043436,-4.7622867922204,59.890173171919,-4.92650048655878,-34.1271366088587,2.70699933281638
4.14790248250062,-14.3804200371811,-10.3609761956515,4.75538610092945,-39.6754064463251,-37.2281742281641,-4.65061472888626,59.7699927356811,-4.60753560553542,-34.2056600606325,2.23949092513004
4.04732749251254,-14.3102118130559,-10.3816272243093,4.77110929603156,-39.3144228811615,-37.2304889871008,-4.53863993262106,59.6328112845888,-4.30684138198375,-34.3199347957275,1.80605575214223
3.93869474322731,-14.2362376071181,-10.4009236510761,4.78669597918982,-38.943471407854,-37.2289694131082,-4.42693766436424,59.4790011580378,-4.02523322309777,-34.4657770398089,1.40568257071329
3.82335638597589,-14.1588203989098,-10.4187297755634,4.80203201476865,-38.5641115080515,-37.2232762690273,-4.31606223265657,59.309065577509,-3.76336605127614,-34.6390157458642,1.03742020889823
3.70275681079965,-14.0783131669893,-10.4349114389693,4.81698297870487,-38.1779658775035,-37.2131198841122,-4.20653851888001,59.1236253237279,-3.52173659896913,-34.8355463073204,0.700389898201172
3.57843218550622,-13.995091942632,-10.449338749344,4.8313947823042,-37.7866971841428,-37.1982641349948,-4.09885401274783,58.9234042961468,-3.30068743332632,-35.0513749733152,0.393788653709913
3.45201030113581,-13.9095485639887,-10.4618889062157,4.84509472574381,-37.3919843854906,-37.1785288534795,-3.99345156789447,58.7092143374654,-3.10041233890637,-35.2826551043945,0.116885146574867
3.32520959258598,-13.8220833260788,-10.4724490192973,4.85789297593755,-36.9954991619787,-37.1537906001502,-3.8907230817888,58.4819396705111,-2.92096266863964,-35.525716417822,-0.13099046289651
3.19983554001137,-13.7330977120042,-10.4809188173876,4.86958445860122,-36.5988830142125,-37.1239818044885,-3.79100429229279,58.242521258379,-2.76225428609472,-35.7770882771467,-0.350461294517936
3.07777183631162,-13.6429873770668,-10.4872131491975,4.87995114896232,-36.2037255373167,-37.0890883344065,-3.69457085803905,57.9919413605627,-2.62407477007136,-36.0335179418001,-0.542121745517531
2.96096281243289,-13.5521355420263,-10.4912641878116,4.88876473774105,-35.8115443240834,-37.0491456164034,-3.60163584675111,57.7312085166886,-2.5060906343427,-36.2919845505668,-0.70655742109042
2.85138286781277,-13.4609069341929,-10.4930232648119,4.8957896395717,-35.4237668685094,-37.0042334778005,-3.51234869882224,57.4613431472243,-2.4078544223147,-36.5497094803217,-0.844365799428354
2.7509884845808,-13.3696423936038,-10.4924622781529,4.90078630249525,-35.041714754323,-36.9544699220524,-3.42679567294965,57.1833639215025,-2.32881165266733,-36.8041636018813,-0.956176549414579
2.6616494523721,-13.2786542353731,-10.4895746381429,4.90351477059229,-34.6665903286103,-36.9000040772146,-3.34500172525757,56.898275012203,-2.26830769821951,-37.0530718532384,-1.04267055819843
2.58505890240794,-13.1882224301649,-10.4843757364384,4.90373844644862,-34.2994659826264,-36.8410085778668,-3.2669337274098,56.6070543349146,-2.22559475859025,-37.2944154645437,-1.10459688261486
2.52262699709975,-13.0985916359961,-10.4769029429288,4.90122799553986,-33.9412760901785,-36.7776716525496,-3.19250489218726,56.310642861208,-2.19983912658177,-37.5264320958548,-1.14278700050365
2.47536998912119,-13.0099690887594,-10.4672151547895,4.89576533105097,-33.5928115874603,-36.7101891918856,-3.12158024343857,56.0099350906854,-2.1901289466138,-37.74761409762,-1.15816588543647
2.44381268874879,-12.9225233365299,-10.4553919397954,4.88714761479322,-33.2547171177824,-36.6387570690413,-3.05398294005538,55.7057707685331,-2.19548262671287,-37.9567050794552,-1.15175954614188
2.42792486502327,-12.8363837836117,-10.4415323293254,4.875191207033,-32.927490614161,-36.5635639778715,-2.98950124541367,55.3989279384799,-2.21485800191825,-38.1526949535715,-1.1246987607423
2.4271080195598,-12.751640994791,-10.4257533221436,4.8597354950841,-32.6114851558349,-36.4847850471603,-2.92789593082768,55.0901174237761,-2.24716226469246,-38.3348135836837,-1.07821880707603
2.44023838248025,-12.6683476992877,-10.4081881571183,4.84064652780863,-32.306912910287,-36.402576478835,-2.86890791301752,54.7799788239582,-2.291262586872,-38.5025231259929,-1.01365505941226
2.46575862012288,-12.5865204276615,-10.3889844041225,4.81782038072515,-32.0138509531629,-36.3170714365499,-2.81226594166708,54.4690780948962,-2.34599727054313,-38.6555091127867,-0.932434411666566
2.50180015079142,-12.5061417121776,-10.3683019118984,4.79118617378401,-31.7322487371459,-36.228377372636,-2.75769416419571,54.1579067417373,-2.41018719464438,-38.7936703020476,-0.836062623734292
2.54631407833466,-12.4271627798695,-10.3463106430956,4.76070866110103,-31.46193695661,-36.1365749262195,-2.70491939969664,53.8468826048677,-2.48264727958549,-38.9171072924561,-0.726107881248313
2.59719178749073,-12.3495066662486,-10.3231884213807,4.7263903101636,-31.2026375352848,-36.0417184584509,-2.65367795803599,53.5363521681656,-2.56219767873962,-39.026109880957,-0.604181094039077
2.65236334662733,-12.2730716759011,-10.2991186136329,4.68827278851414,-30.9539744590854,-35.9438382185507,-2.60372184843483,53.2265942755535,-2.64767442313852,-39.1211431156105,-0.471913700569498
2.70986945059936,-12.1977351141752,-10.2742877715327,4.6464377793759,-30.715485189994,-35.8429440620951,-2.55482423624926,52.9178251104513,-2.7379392877226,-39.2028319711133,-0.330933951670084
2.76790831450874,-12.123357212003,-10.2488832606095,4.60100705467128,-30.4866324254844,-35.7390305741048,-2.50678402655479,52.6102042717271,-2.83188870239807,-39.2719445757775,-0.182842769742081
2.82486198919521,-12.0497851643901,-10.223090909935,4.55214174558038,-30.2668160030992,-35.632083385661,-2.4594294768542,52.3038417636519,-2.92846158714742,-39.3293739882444,-0.0291902834339579
2.87930745535523,-11.9768572038026,-10.1970927207826,4.50004076918544,-30.0553847842206,-35.5220864151124,-2.41262076765078,51.9988057008916,-3.02664604215242,-39.3761186660542,0.128545975404041
2.930017410754,-11.904406633912,-10.1710646762839,4.4449383966824,-29.8516483809683,-35.4090297154527,-2.36625148988679,51.6951305111517,-3.12548487306299,-39.413261934025,0.288980410935131
2.97595464762416,-11.8322657569389,-10.1451746953375,4.3871009837547,-29.6548886142047,-35.2929175710735,-2.32024904438275,51.3928254002145,-3.22407998112705,-39.4419508747298,0.45083563714065
3.01626281261861,-11.7602696376641,-10.1195807727833,4.32682292337963,-29.4643706083722,-35.1737764629866,-2.27457398996535,51.0918828308396,-3.32159569694531,-39.4633750912218,0.61295526881614
3.0502553898792,-11.6882596571604,-10.0944293450647,4.26442192002783,-29.2793534398566,-35.0516625147889,-2.22921841955409,50.7922867609741,-3.41726118038868,-39.4787457606632,0.774312986197946
3.07740402521274,-11.6160868181476,-10.0698539170745,4.20023371681191,-29.0991002597444,-34.9266680447635,-2.18420348069847,50.494020388816,-3.51037204248176,-39.4892753639084,0.934017808159932
3.09732680687847,-11.5436147710063,-10.0459739818762,4.13460643054799,-28.9228878111441,-34.7989268839358,-2.13957618381838,50.197073163907,-3.60029136463211,-39.4961584699468,1.09131568632843
3.10977679373787,-11.4707225342722,-10.0228942607793,4.06789466324561,-28.7500152598535,-34.6686181742179,-2.09540565646671,49.9014468476733,-3.68645029461447,-39.5005539519816,1.24558767965521
3.11463088689143,-11.397306885227,-10.0007042868394,4.00045356293937,-28.5798122598594,-34.5359684309211,-2.05177900799091,49.6071604461308,-3.76834838427921,-39.5035689734836,1.39634505912134
3.11187903541666,-11.3232843950907,-9.97947834854266,3.93263300276062,-28.4116461850836,-34.4012517352082,-2.00879696993635,49.3142538907023,-3.84555379758178,-39.5062450007472,1.54322172645826
3.10161371922814,-11.248593080693,-9.95927579987121,3.86477203601457,-28.2449284759055,-34.2647880094844,-1.96656947554049,49.0227904046399,-3.9177034597606,-39.5095460020906,1.68596433706142
3.08401964034305,-11.1731936425019,-9.94014172851593,3.79719376933484,-28.0791200698927,-34.1269394155509,-1.92521133598549,48.7328575545063,-3.98450314676457,-39.5143489129716,1.82442052658607
3.0593635631087,-11.0970702591845,-9.92210795927887,3.73020077751686,-27.9137359062173,-33.988104995079,-1.88483815912846,48.4445670422569,-4.04572744078428,-39.5214363890137,1.95852566549622
3.0279842645693,-11.0202309119347,-9.90519435750121,3.66407116143706,-27.7483485103041,-33.848713742783,-1.84556263629085,48.1580533419467,-4.10121941709063,-39.5314918238918,2.08828859625674
2.99028258196104,-10.9427072178026,-9.88941038694559,3.59905532314868,-27.5825906810207,-33.7092163671524,-1.80749129524978,47.8734713281351,-4.15088989255375,-39.5450965597417,2.21377682259302
2.94671157142148,-10.8645537607314,-9.87475686589991,3.53537350108172,-27.4161573190205,-33.5700760527971,-1.77072178530413,47.5909930822558,-4.19471606504321,-39.5627291561789,2.33510160261479
2.89776681785531,-10.7858469220213,-9.86122785462631,3.47321407647588,-27.2488064490483,-33.4317585877551,-1.73534072400561,47.3108040950552,-4.23273940292984,-39.5847665150113,2.45240334753906
2.84397695878172,-10.706683227152,-9.84881259935635,3.41273263192614,-27.0803594949354,-33.294722251279,-1.70142209430689,47.0330991008266,-4.26506269366383,-39.6114865967901,2.56583766302959
2.7858945036023,-10.6271772414377,-9.83749745475535,3.3540517152369,-26.910700860894,-33.1594078687891,-1.66902613849098,46.7580777795321,-4.29184621671768,-39.6430724339853,2.67556231576497
2.72408704299473,-10.5474590623903,-9.82726770735303,3.29726123936355,-26.7397768610023,-33.0262294313974,-1.6381986611888,46.4859405497171,-4.3133030594325,-39.6796171552007,2.78172537714159
2.65912895010117,-10.467671473071,-9.81810922513797,3.24241943682113,-26.5675940276156,-32.8955656488169,-1.60897063995827,46.2168846538833,-4.32969363869307,-39.7211297638922,2.88445477838586
2.59159367499438,-10.387966838396,-9.81000986353154,3.1895542867469,-26.394216823096,-32.7677527563551,-1.58135805196712,45.951100711066,-4.34131952521352,-39.7675414128561,2.9838494803406
2.52204672587885,-10.3085038427661,-9.8029605674444,3.13866534098733,-26.2197647788582,-32.6430788295373,-1.55536185069874,45.6887698791175,-4.3485166942035,-39.8187118476064,3.07997239861363
2.45103941419436,-10.2294441785419,-9.79695612430548,3.08972588534522,-26.0444090916335,-32.521779777341,-1.53096805404565,45.4300617323823,-4.35164835168451,-39.8744355890405,3.17284513974243
2.37910341621855,-10.1509492983324,-9.79199554230462,3.04268537931546,-25.8683687184827,-32.4040370940805,-1.50814792666254,45.1751329193433,-4.35109750963902,-39.9344473812633,3.26244453002553
2.30674617148194,-10.0731773397169,-9.78808204851081,2.99747212215811,-25.6919060265651,-32.2899773598871,-1.48685825354412,44.9241266177888,-4.34725949876586,-39.9984265224947,3.34870088764932
2.23444709964402,-9.99628032006686,-9.78522272025487,2.95399609617531,-25.5153220669071,-32.1796733998349,-1.4670417097584,44.6771727509178,-4.34053460889325,-40.0659999173561,3.4314980034724
2.16265457469071,-9.92040168289907,-9.78342777821599,2.9121519396956,-25.338951551079,-32.0731469488871,-1.44862733561421,44.4343888706081,-4.33132103549968,-40.1367439569393,3.51067482821546
2.09178355169102,-9.84567425705281,-9.78270957999664,2.87182200186133,-25.1631576160187,-31.9703726264235,-1.43153113042437,44.1958815636211,-4.32000829427702,-40.2101855670833,3.58602888073409
2.02221370122708,-9.77221866775928,-9.78308135940181,2.83287942891681,-24.9883264654524,-31.8712829981866,-1.415656783049,43.9617482020674,-4.30697125205392,-40.2858029239131,3.65732138014974
1.95428787522363,-9.70014221646865,-9.78455576151493,2.79519122881003,-24.8148619747388,-31.7757744905521,-1.40089656285733,43.732078843747,-4.29256491365088,-40.3630264093495,3.72428406748125
1.88831071105065,-9.62953822587856,-9.78714322881805,2.7586212595277,-24.6431803370539,-31.6837139179519,-1.38713239869719,43.5069580883307,-4.27712009645252,-40.4412403665916,3.78662762314491
1.82454718421644,-9.56048582879327,-9.7908502988694,2.72303308747882,-24.4737048125419,-31.5949453871972,-1.3742371732398,43.2864667086981,-4.26094011139699,-40.5197861182965,3.84405150788386
1.76322094853866,-9.49305016436691,-9.79567787802904,2.6882926647334,-24.3068606219973,-31.5092973523986,-1.36207625315695,43.0706829019768,-4.24429854449043,-40.5979665499014,3.89625496846757
1.704512359088,-9.42728293325727,-9.80161955731889,2.65427077749622,-24.1430700082496,-31.426589611093,-1.35050926214219,42.8596830421265,-4.22743819219429,-40.6750523839269,3.9429488691214
1.64855615666492,-9.36322325511749,-9.80866003541681,2.62084522401313,-23.9827474756505,-31.3466400543454,-1.33939208786628,42.6535418642532,-4.21057114602055,-40.7502901223837,3.98386793836911
1.59543889750033,-9.30089876868211,-9.8167737100592,2.58790269036608,-23.8262952122574,-31.2692710077322,-1.3285791010381,42.452332065998,-4.19387995022348,-40.822911526987,4.01878296409608
1.54519632699904,-9.24032691696303,-9.82592349277997,2.55534030851528,-23.6740987001536,-31.1943150231062,-1.31792555774887,42.2561233664117,-4.17751967993056,-40.8921444300324,4.04751244704617
1.49781100489288,-9.18151636714422,-9.83605989335122,2.52306690105864,-23.5265225255163,-31.1216200014147,-1.30729015364699,42.06498111092,-4.16162071590315,-40.9572246106526,4.06993325390249
1.45321057058564,-9.12446852435238,-9.84712041069477,2.49100393708844,-23.3839064094516,-31.0510535451116,-1.2965376955243,41.8789645482288,-4.14629193575121,-41.01740842589,4.08598989262182
1.41126707097232,-9.06917910712968,-9.85902925750633,2.45908623801102,-23.2465614912647,-30.9825064571247,-1.28554184889351,41.698124930649,-4.13162400760163,-41.0719858551451,4.09570214325034
