Finger Velocity,Scap_X,Scap_Y,Scap_Z,Shoulder horiz abd-adduction,Shoulder flexion-extension,Shoulder internal-external rotation,elbow flexion-extension,forearm pronation-supination,wrist flexion-extension,wrist radial-ulnar deviation
1.92170895645795,-15.0617873876928,-9.07101700811217,4.87990129764641,-41.544072579225,-37.7297307964728,-6.59383532809516,58.4365902026576,-14.4524320026198,-44.3095531945881,26.502361221222
2.26818528917808,-15.0461453605182,-9.04964727937293,4.81943056444265,-41.5442292053621,-37.7047015610433,-6.60936493320861,58.559323475502,-14.1933018755664,-43.7364708365444,25.7490876429039
2.64810731963451,-15.029515619752,-9.02733585910363,4.75626239557065,-41.5376653371192,-37.6701352559257,-6.61908801894006,58.6995068619854,-13.921469620552,-43.1245206801603,24.9515457157316
3.06136067867038,-15.0118567409432,-9.00411397169592,4.69046981709277,-41.5234879769196,-37.6244644860886,-6.62222925910397,58.8579213990342,-13.6365374410722,-42.4759120901972,24.114081424486
3.50767287203299,-14.9931299389466,-8.98000636836588,4.62211919208425,-41.5008492359587,-37.5660413332364,-6.61803522012221,59.035267552809,-13.3380487852258,-41.7929791900035,23.2413744470532
3.98657750936138,-14.9732996449886,-8.95502915218037,4.551265980981,-41.4689634155428,-37.493151578835,-6.60578579213026,59.2321603982179,-13.0254887536288,-41.0780784415363,22.338317975174
4.49739029488245,-14.9523338897225,-8.92918773147477,4.47795072781268,-41.4271233908296,-37.4040308371034,-6.58480529426774,59.4491260508587,-12.6982861387981,-40.3334908722028,21.4098993404933
5.03919334243345,-14.9302044616201,-8.90247494232702,4.40219541418566,-41.3747158800203,-37.2968824186561,-6.55447291107741,59.686599310872,-12.355817221469,-39.5613348944172,20.4610871387521
5.6108257829111,-14.9068868167934,-8.87486938194332,4.32400031421565,-41.3112351943541,-37.16989671358,-6.51423211114491,59.9449224456005,-11.9974114530685,-38.7634950425604,19.4967300547422
6.2108794420383,-14.8823597219021,-8.84633400077405,4.24334147064206,-41.2362950880118,-37.021271850021,-6.46359870513669,60.2243450139683,-11.6223591527138,-37.941570867479,18.5214716700982
6.83769883177415,-14.8566046180393,-8.81681500994559,4.16016889358452,-41.1496383611988,-36.8492353535072,-6.40216722066467,60.5250246245854,-11.2299213384112,-37.0968488160599,17.5396842811849
7.48938496470626,-14.8296047029307,-8.7862411684214,4.07440555852415,-41.051143912696,-36.6520665059814,-6.32961530996907,60.8470285201373,-10.8193417868516,-36.2302983544893,16.5554233159698
8.16380264986258,-14.8013437428765,-8.7545235165033,3.98594725083858,-40.9408309884933,-36.4281190837645,-6.24570596624414,61.1903358824934,-10.3898613662156,-35.3425920198266,15.5724024812214
8.85859100781499,-14.7718046442221,-8.72155561499265,3.89466327329264,-40.8188604303818,-36.1758441419381,-6.15028740525732,61.5548407435588,-9.94073461200964,-34.43414761629,14.5939884308889
9.57117698021183,-14.7409678348573,-8.68721433131427,3.80039800236301,-40.6855327939127,-35.8938125099249,-6.04329056695424,61.9403553602559,-9.47124842810329,-33.5051895012194,13.6232126133558
10.2987916203329,-14.708809526553,-8.65136118681895,3.70297325023237,-40.5412832803028,-35.5807366689052,-5.92472430064889,62.3466138714655,-8.98074271163553,-32.5558249046185,12.662797078461
11.0384889469224,-14.6752999464792,-8.61384424652236,3.60219136250522,-40.3866735107146,-35.2354916935598,-5.79466840970218,62.77327600845,-8.46863263657275,-31.5861305224275,11.7151904199502
11.7871671297709,-14.6404016398118,-8.57450049691317,3.49783895815975,-40.2223802611729,-34.8571349544318,-5.65326484036833,63.219930587279,-7.93443228920228,-30.5962442053409,10.7826096896627
12.5415917564805,-14.6040679540363,-8.53315862172179,3.38969119893428,-40.0491813708462,-34.4449242892795,-5.50070739954248,63.6860984811307,-7.37777931792934,-29.5864564306468,9.86708404461619
13.298420908461,-14.5662418175419,-8.4896420520498,3.27751646075934,-39.8679391361025,-33.9983343597955,-5.33723047305152,64.1712347599007,-6.79846021938248,-28.5572964133335,8.97049608966979
14.054231752577,-14.5268549181053,-8.44377213957301,3.16108127025521,-39.679581605995,-33.5170709124961,-5.16309728377809,64.6747296991966,-6.19643581421883,-27.5096081707639,8.09461735775043
14.8055483346108,-14.4858273696646,-8.3953712852145,3.04015536531386,-39.4850822938934,-33.0010826586626,-4.97858826807893,65.1959084029325,-5.571866360177,-26.4446125173511,7.24113508389662
15.5488702430755,-14.4430679287809,-8.34426585595467,2.9145167409846,-39.2854389020048,-32.4505704792635,-4.78399015052141,65.734028853152,-4.92513561256015,-25.3639517162714,6.41166829583088
16.2807017979318,-14.3984747875219,-8.29028873996059,2.78395655029193,-39.0816517084526,-31.8659936513991,-4.57958625801301,66.2882782935109,-4.25687299170153,-24.2697142858228,5.60777217578858
16.9975814092402,-14.3519369310369,-8.23328142007796,2.64828374331762,-38.8747022850167,-31.2480727903576,-4.36564853969199,66.8577679644453,-3.56797287726608,-23.1644382595792,4.83093058578586
17.6961107463409,-14.3033360108354,-8.17309548111864,2.50732934464555,-38.6655331993631,-30.5977892145343,-4.14243165575362,67.441526337685,-2.859609944804,-22.0510920859849,4.08253756034956
18.3729833592734,-14.2525486530042,-8.10959350229084,2.3609502860677,-38.4550293135264,-29.9163804765887,-3.91016937299972,68.0384911464619,-2.13324941256818,-20.9330333523446,3.36386943259909
19.0250124010974,-14.1994490963911,-8.04264932047044,2.20903272664711,-38.244001224836,-29.2053318666913,-3.6690733647643,68.6475006711625,-1.39065109428249,-19.8139465945128,2.67605002985195
19.6491571126822,-14.1439120391412,-7.97214768276087,2.05149480629316,-38.0331713096439,-28.4663637818785,-3.41933436867982,69.2672849057955,-0.633866268580669,-18.697762533862,2.02001199394775
20.242547750319,-14.0858155621157,-7.89798333794335,1.8882887919766,-37.8231627277528,-27.7014149675926,-3.16112552047014,69.8964573811335,0.134773416607463,-17.5885621030166,1.39645768892348
20.8025086609496,-14.0250439942955,-7.82005964424807,1.71940258622948,-37.6144916310999,-26.9126217712738,-2.89460756902808,70.5335085363787,0.912675487967869,-16.4904695390288,0.805823311500356
21.3265792394673,-13.9614905887044,-7.73828679258396,1.54486057559177,-37.4075626980309,-26.1022936976895,-2.61993559792074,71.1768015906645,1.69701474207806,-15.4075395927258,0.248249698801055
21.8125325368615,-13.895059888138,-7.65257975827633,1.36472380485437,-37.2026679859698,-25.272885710264,-2.33726683368832,71.8245718454673,2.48476955318134,-14.3436444447785,-0.276437072981942
22.2583913262181,-13.8256696780569,-7.56285610058006,1.17908947412586,-36.999988963369,-24.4269678677008,-2.04676910697008,72.4749302344935,3.27276558353574,-13.302366114425,-0.76873288623533
22.6624414748872,-13.7532524488556,-7.46903372819062,0.988089770204608,-36.7996014578354,-23.5671930079145,-1.7486295429686,73.1258717338721,4.05772563134529,-12.2868998923298,-1.22944910095098
23.0232425145391,-13.6777563199971,-7.37102874009537,0.791890059537869,-36.6014831591867,-22.6962632834007,-1.4430630902847,73.7752889757312,4.83632396406406,-11.2999735977786,-1.65969203907185
23.3396353453036,-13.5991454114201,-7.26875343387846,0.590686484857054,-36.4055232566011,-21.8168964090773,-1.13032054835282,74.4209911005815,5.60524320973733,-10.3437863303045,-2.06082925116627
23.610747054668,-13.5173996792314,-7.1621145502437,0.384703019942071,-36.21153376753,-20.9317925015605,-0.81069581666552,75.0607275620125,6.36123173997917,-9.41996902083254,-2.43444446561034
23.835992875215,-13.4325142595862,-7.05101179864849,0.174188046351685,-36.0192621228225,-20.0436023637892,-0.484532155247531,75.6922162820611,7.10115948105957,-8.52956767163195,-2.78228399190847
24.0150753465847,-13.3444983852226,-6.93533669059511,-0.0405894779900903,-35.8284045960496,-19.1548979996489,-0.152227308461674,76.3131752697175,7.82207022890048,-7.67304884429291,-3.10619792925342
24.1479807852869,-13.2533739527234,-6.81497169807435,-0.259344185639282,-35.6386201977193,-18.268146033589,0.185762602147035,76.9213565814991,8.52122880180324,-6.85032578718216,-3.40807978043173
24.2349732003267,-13.1591738246058,-6.68978975538242,-0.481778727888432,-35.4495446958143,-17.385684568138,0.528920469693459,77.514581342875,9.19616171073505,-6.06080263800713,-3.68980798971272
24.27658582233,-13.0619399490753,-6.55965412939195,-0.70758838764932,-35.260804474907,-16.5097038486923,0.876666905785093,78.0907744777504,9.84469042357487,-5.30343343906832,-3.95319254853639
24.2736104384358,-12.9617213738818,-6.42441868942961,-0.93646579404596,-35.0720300058802,-15.6422309336782,1.22836026875407,78.6479978154868,10.4649567098367,-4.57679228889121,-4.19992921597695
24.2270847443104,-12.8585722222663,-6.28392860739566,-1.16810564737363,-34.8828687607746,-14.7851184033849,1.58329802182938,79.184480355744,11.0554399433791,-3.87915080446366,-4.43156317801022
24.1382779380786,-12.7525496911349,-6.13802151084743,-1.40220935608754,-34.6929974641333,-13.9400369941461,1.94071942686557,79.6986446577073,11.6149665866881,-3.20855912893394,-4.64946321827423
24.0086747888175,-12.6437121264919,-5.98652909993582,-1.63848948533988,-34.5021336147761,-13.1084719234215,2.29980958665091,80.189128562079,12.1427123634858,-2.56292694590637,-4.85480676475517
23.8399584147356,-12.5321172304425,-5.82927922755555,-1.87667391909201,-34.3100462318134,-12.2917225782043,2.65970486076492,80.6548017251283,12.6381978354422,-1.9401013367074,-5.04857554659521
23.6339920037012,-12.4178204579115,-5.6660984334994,-2.11650964149526,-34.1165657708195,-11.490905172807,3.01949968749198,81.0947767167339,13.1012782287669,-1.33793882417734,-5.23156105610597
23.3927997019166,-12.3008736677212,-5.49681491806168,-2.35776604530276,-33.9215931222481,-10.7069579402852,3.37825483572246,81.5084146890039,13.5321284100007,-0.754369540070384,-5.40437857461225
23.1185468859634,-12.1813240984499,-5.32126193563338,-2.60023767679387,-33.7251075532174,-9.94064840381454,3.73500707893312,81.8953258473293,13.9312238983836,-0.187452065705397,-5.56748819995949
22.8135200199025,-12.0592137408692,-5.13928157936666,-2.84374633250719,-33.5271733990162,-9.192582279704,4.08878022903546,82.2553651404917,14.2993187430769,0.364581935397384,-5.72122110962653
22.480106283428,-11.9345791726461,-4.95072891013547,-3.08814243678919,-33.3279452667969,-8.46321358934997,4.43859739619427,82.5886237176197,14.6374210088731,0.903293684732636,-5.8658091892103
22.1207731400498,-11.8074519055188,-4.75547635734814,-3.3333056508254,-33.1276714940175,-7.75285559791075,4.78349425639381,82.8954167719606,14.9467665224802,1.43001384138715,-6.00141613256335
21.7380479967243,-11.677859270834,-4.55341829092388,-3.57914468933278,-32.926695614956,-7.06169224652189,5.12253301643969,83.1762684131319,15.2287914418938,1.94582928726273,-6.12816817813388
21.3344980890152,-11.5458258397779,-4.34447564060169,-3.8255963448944,-32.7254556271908,-6.38978979475116,5.45481667544604,83.4318941953267,15.4851041219433,2.45157951355041,-6.24618280257346
20.9127107094405,-11.4113753444563,-4.12860042693002,-4.07262373980521,-32.524480909135,-5.73710843353526,5.77950310945279,83.6631818900897,15.7174566571652,2.9478617616019,-6.35559395455333
20.4752738817629,-11.2745330378669,-3.9057800687542,-4.32021384433646,-32.3243867148805,-5.10351366566609,6.0958184712465,83.8711710361734,15.9277163952643,3.43504391508685,-6.45657276431267
20.02475757115,-11.1353284052369,-3.67604134044479,-4.56837432220019,-32.1258662594965,-4.488787288083,6.40306941045985,84.0570317322828,16.117837642211,3.91328401999239,-6.54934307002713
19.5636955098239,-10.9937981161752,-3.43945386338337,-4.81712978792858,-31.9296804986839,-3.89263785309591,6.70065367260041,84.2220430677651,16.2898337302044,4.38255520162986,-6.63419149985304
19.0945677104414,-10.8499890873993,-3.19613302877491,-5.06651758283406,-31.736645793165,-3.31471053056777,6.98806871406185,84.3675715171381,16.4457495928845,4.84267465401174,-6.71147217916062
18.6197837353047,-10.7039615112854,-2.94624226403715,-5.31658319258277,-31.5476197258902,-2.75459633166856,7.26491805997397,84.4950495606587,16.587634986663,5.29333531451864,-6.78160637913193
18.1416667888534,-10.5557916986283,-2.68999457293934,-5.56737543801929,-31.3634854073451,-2.21184068295965,7.53091522406127,84.6059547377534,16.7175185101278,5.73413881770442,-6.84507761289252
17.662438703886,-10.4055745865069,-2.42765329722091,-5.8189415714631,-31.1851346610723,-1.68595135998594,7.7858850993625,84.7017892965647,16.8373826019748,6.1646283521629,-6.90242284901426
17.1842058986283,-10.2534257742668,-2.15953206121571,-6.07132240647683,-31.0134505296539,-1.17640580742971,8.02976281605839,84.7840605749626,16.9491397389679,6.58432014240485,-6.95422065209279
16.7089463919533,-10.099482971676,-1.88599387095941,-6.32454760487741,-30.8492895793151,-0.68265789110742,8.26259014994656,84.8542622365364,17.0546101023277,6.99273246573901,-7.00107715542
16.2384979773499,-9.94390677190612,-1.60744934833786,-6.57863124142941,-30.6934645002368,-0.204144144265991,8.48450964766971,84.9138564828443,17.1555010203382,7.38941137774296,-7.04361080055473
15.7745476718847,-9.78688069553215,-1.32435409202965,-6.8335677599864,-30.5467274903998,0.259710418627332,8.69575670226715,84.9642573611138,17.2533885152005,7.77395260886887,-7.08243674044414
15.3186225732146,-9.62861048700118,-1.03720517162702,-7.08932842095816,-30.4097548743944,0.709486849061313,8.89664986020843,85.0068152810891,17.3497012836526,8.1460193734849,-7.1181517118169
14.87208227402,-9.46932267959912,-0.746536779681921,-7.34585832026088,-30.283133355503,1.14576711713624,9.08757967386762,85.0428028495562,17.445707430786,8.50535609475307,-7.15132005664073
14.4361129968399,-9.30926247687941,-0.452915088376654,-7.60307403948059,-30.1673482393951,1.56912924163048,9.26899643911641,85.0734021299764,17.5425042540587,8.85179827871408,-7.18246142476246
14.0117236205641,-9.14869102438627,-0.156932382079998,-7.86086197018013,-30.0627739063083,1.98014270211138,9.44139718051792,85.0996934369579,17.6410113289237,9.18527893292879,-7.21204053477702
13.5997437698118,-8.98788216134523,0.140799437634394,-8.11907734282399,-29.9696667483504,2.37936416874441,9.60531226624037,85.1226457788489,17.7419670719533,9.5058319969409,-7.24045922481999
13.2008241271357,-8.82711874694507,0.439655853432606,-8.3775439797735,-29.8881607307978,2.76733360901121,9.76129204704195,85.1431090664935,17.8459288582181,9.81359324548367,-7.26805089922747
12.8154391027807,-8.66668865401664,0.739007095788806,-8.63605477806891,-29.8182656803998,3.14457084415055,9.9098939126681,85.1618082137874,17.9532766611096,10.1087990711296,-7.29507736724626
12.4438919557959,-8.50688052114488,1.03822570292309,-8.89437290956804,-29.7598683476068,3.51157263177602,10.0516701421865,85.1793392665899,18.0642200778746,10.3917834773821,-7.32172797122444
12.086322403088,-8.34797935786479,1.33669409528913,-9.15223370567985,-29.7127362291591,3.86881034361251,10.1871568941565,85.1961677071531,18.1788085091988,10.6629735303868,-7.34812082075783
11.7427166806601,-8.19026210729688,1.63381197795707,-9.40934717528876,-29.6765240661218,4.2167282851754,10.3168646405202,85.2126290825113,18.2969441729,10.9228834364675,-7.37430589593759
11.4129199368589,-8.03399328189193,1.92900339347153,-9.66540109034889,-29.6507828463612,4.55574266628405,10.4412702946883,85.2289320858387,18.418397543573,11.1721073464959,-7.40026975400158
11.0966507458829,-7.87942079395141,2.22172326687493,-9.92006456557139,-29.6349710470712,4.88624118344525,10.5608112199078,85.2451641733061,18.542824724912,11.4113109521375,-7.42594155684724
10.7935174375675,-7.7267720981563,2.51146330639825,-10.1729920568734,-29.6284677712051,5.20858312962806,10.6758812333813,85.2612997280333,18.6697861937076,11.6412219412029,-7.45120012473029
10.5030358539366,-7.57625074803008,2.79775714559736,-10.4238277055937,-29.6305873790347,5.52309991615727,10.7868286508815,85.2772106942627,18.7987663168347,11.862619415713,-7.47588171502419
10.2246480716228,-7.42803344672706,3.080184639007,-10.6722099570571,-29.6405951947017,5.83009588200077,10.8939563463605,85.2926795045277,18.9291930379092,12.0763224356596,-7.49978822723917
9.95774157852915,-7.28226765223125,3.35837525615879,-10.9177763785926,-29.6577238638832,6.12984927612769,10.9975237263902,85.3074140168466,19.0604571562416,12.2831779176383,-7.52269554994998
9.70166836782754,-7.13906978296685,3.63201055476197,-11.1601685944887,-29.6811899370424,6.42261332130428,11.0977504398296,85.3210640781578,19.1919306742383,12.4840481707039,-7.54436179478536
9.45576341496376,-6.99852406019813,3.90082574535606,-11.399037250812,-29.7102102502902,6.70861729480773,11.1948215702033,85.3332392447891,19.3229837653281,12.6797983780562,-7.56453520450318
9.21936203360162,-6.86068201153824,4.1646103786444,-11.6340469295338,-29.7440176828408,6.98806758966538,11.2888940070669,85.34352712666,19.4530000023841,12.8712843313106,-7.58296156673498
8.99181566172055,-6.72556264008438,4.42320819031456,-11.8648809488924,-29.78187589597,7.2611487475018,11.3801036660024,85.3515117823943,19.5813895723045,13.0593406976772,-7.59939100354036
8.77250570475527,-6.59315323834741,4.67651613487213,-12.0912460054284,-29.8230926998909,7.52802447532151,11.4685732123255,85.3567915814715,19.7076002762633,13.2447700505524,-7.61358403707198
8.56085515281606,-6.46341080522414,4.924482645191,-12.3128766220944,-29.8670317385274,7.78883866600273,11.554419929222,85.3589959696614,19.8311261795388,13.4283328240658,-7.62531685352323
8.35633778725573,-6.33626401807207,5.16710517685586,-12.5295393643238,-29.9131222185377,8.04371643502966,11.6377633598663,85.357800622913,19.9515138404296,13.6107382710513,-7.6343857015453
8.15848489200018,-6.21161572020736,5.40442712915053,-12.741036776972,-29.9608664438297,8.29276517322176,11.7187323581745,85.3529405458474,20.0683661213546,13.7926364232531,-7.64061037291285
7.96688948177585,-6.08934589328684,5.63653426041211,-12.9472109851063,-30.0098449673504,8.53607560957445,11.7974712141256,85.3442207571712,20.1813436642529,13.9746109825288,-7.64383673467811
7.78120814842301,-5.96931507815018,5.86355072121822,-13.1479468946093,-30.0597192519544,8.77372288501704,11.8741445780122,85.3315243002131,20.2901641885208,14.1571730205948,-7.64393832434187
7.60116070487861,-5.85136818182422,6.08563481568691,-13.3431749271148,-30.1102318395,9.00576765066116,11.9489409866464,85.3148174167784,20.3945998335023,14.3407553405822,-7.64081708007003
7.42652787227342,-5.73533857106884,6.30297458026562,-13.5328732277924,-30.1612041448721,9.23225721265537,12.0220748828031,85.2941518213493,20.4944728125817,14.5257073632857,-7.63440333920021
7.25714730794175,-5.62105231878145,6.51578324964823,-13.7170692906958,-30.2125320997958,9.45322674631401,12.0937871085357,85.2696641080242,20.5896496735516,14.712290444542,-7.62465528232894
7.09290831062441,-5.50833245015624,6.7242946615157,-13.8958409506998,-30.2641799585169,9.66870060029486,12.1643439386127,85.2415724143899,20.6800344785726,14.9006736001956,-7.61155802069805
6.93374556372112,-5.39700303332378,6.92875863229348,-14.0693166901734,-30.3161726407437,9.87869371638552,12.2340347954166,85.2101705532484,20.7655612351387,15.0909297034738,-7.59512252125753
6.77963228819054,-5.28689296979343,7.1294363164468,-14.2376752017291,-30.3685870265546,10.0832132046308,12.3031688407123,85.1758199000293,20.8461859286601,15.2830323188822,-7.57538453715174
6.63057317366317,-5.17783935787097,7.32659555247286,-14.4011441419643,-30.4215426326938,10.2822601260166,12.3720706681101,85.1389393849746,20.9218785216254,15.4768534338308,-7.55240366769626
6.48659743955394,-5.06969032485502,7.52050621082271,-14.5599980179522,-30.4751920911787,10.4758315279304,12.4410753326183,85.0999939822023,20.9926152862941,15.6721624229547,-7.52626262314342
6.34775234753408,-4.96230725133929,7.71143558883314,-14.7145551767249,-30.5297118247769,10.6639227469254,12.5105229646952,85.0594821140882,21.0583718257226,15.8686266082448,-7.49706672399301
