Finger Velocity,Scap_X,Scap_Y,Scap_Z,Shoulder horiz abd-adduction,Shoulder flexion-extension,Shoulder internal-external rotation,elbow flexion-extension,forearm pronation-supination,wrist flexion-extension,wrist radial-ulnar deviation
1.66459609450036,-16.8473822647503,-10.2420731112671,1.46585975497159,-24.6266269250404,-34.8617435546821,1.25866752873353,48.3020155330962,-4.11314044924187,-58.3231194672673,44.9616803857627
1.98108546540034,-16.8470277892278,-10.2243907671844,1.422313773633,-24.7146674189876,-34.7918286730443,1.14005917647547,48.5228613076182,-3.85881760651388,-58.0948821967879,44.5260869909898
2.32510783093728,-16.847312923615,-10.2042154234764,1.37226956884827,-24.7951408249307,-34.715615050156,1.02995545421814,48.7676510867512,-3.58557337812027,-57.8321184054049,44.0489510533177
2.69562844317894,-16.8478700478924,-10.1813292415712,1.31580942290805,-24.8671603420496,-34.6322290306831,0.928805868464898,49.0371126369933,-3.29193470163387,-57.5313704602175,43.528228373998
3.09158192939829,-16.8482699185039,-10.15553015445,1.25308661761296,-24.9299373872614,-34.5407386547404,0.836887837594827,49.3318479694477,-2.97632419773342,-57.1890931590763,42.9618675510352
3.51182128741173,-16.8480262981102,-10.1266367345811,1.1843221301875,-24.9827959263598,-34.4401645625221,0.754300228796907,49.6523282345093,-2.63707588295141,-56.8016780928509,42.3478090977254
3.95509300400943,-16.8466023144797,-10.0944929319663,1.10979976669701,-25.0251847361235,-34.3294924115977,0.680960576644893,49.9988902053699,-2.27245513776905,-56.3654811686661,41.6839879896945
4.42002768483598,-16.8434184656514,-10.0589725694159,1.02985983353707,-25.0566871608668,-34.2076865143456,0.616606190643007,50.3717342856868,-1.880682768603,-55.8768540556726,40.9683412904571
4.90514026963622,-16.8378621302298,-10.0199834871139,0.944891501043852,-25.0770279573737,-34.073704353305,0.560799294571219,50.7709239780512,-1.45996290432136,-55.3321804297931,40.1988224906942
5.40883635458121,-16.8292983875019,-9.97747123346191,0.855324062934133,-25.0860768734327,-33.9265115954405,0.512936264897346,51.1963867591825,-1.00851436467271,-54.727917917335,39.3734240575995
5.9294224572687,-16.8170819042174,-9.93142220229568,0.761617337140682,-25.0838486826295,-33.7650972033998,0.472260947829136,51.6479163224523,-0.524605019162632,-54.0606465569536,38.4902094375067
6.46511879026346,-16.8005696051901,-9.88186611816982,0.664251484176237,-25.0704995034647,-33.5884882313296,0.437881936071187,52.1251761672228,-0.00658851481799183,-53.3271244312247,37.5473554171792
7.01407353312513,-16.7791338146821,-9.82887777313796,0.563716537011673,-25.0463193614373,-33.3957638949362,0.408793579548013,52.6277045372788,0.547057407324835,-52.5243509134403,36.5432053769234
7.57437785355387,-16.7521755351281,-9.77257792214166,0.460501943058466,-25.011721101729,-33.1860685239889,0.383900389590662,53.1549207360557,1.137691951854,-51.6496377917179,35.4763336172768
8.14408110068874,-16.7191375183593,-9.71313325120415,0.35508641743668,-24.9672259178166,-32.9586230445501,0.362044372130459,53.7061328693701,1.76647276000636,-50.700688401595,34.3456206445837
8.72120571793933,-16.6795167814584,-9.65075534396791,0.247928399045238,-24.9134459159007,-32.7127346977321,0.342034696213686,54.2805470769241,2.43431905909984,-49.6756847978758,33.1503390483719
9.30376152069603,-16.6328762253501,-9.58569858787339,0.139457385001493,-24.8510642738953,-32.4478047766514,0.322678982344452,54.8772782996034,3.14187772575339,-48.5733828491268,31.8902493283262
9.88975906739044,-16.5788550311423,-9.51825698138944,0.0300663900730469,-24.7808136641756,-32.1633342475309,0.302815396455174,55.4953625810214,3.88949348240391,-47.3932148254823,30.565704620528
10.4772219265108,-16.5171775385089,-9.44875982910454,-0.0798942677016352,-24.703453680515,-31.858927210072,0.281344670848906,56.1337708158174,4.67718431537285,-46.1353984420227,29.1777626089068
11.064197709908,-16.4476603512708,-9.37756634409312,-0.190121714645608,-24.6197480372743,-31.5342922404937,0.257261148612139,56.7914237378849,5.50462297804122,-44.8010503063222,27.7283018827488
11.6487678047873,-16.3702174647854,-9.30505921708973,-0.300363731255707,-24.5304422980465,-31.1892417394577,0.229681964260949,57.4672077994902,6.37112513768554,-43.3923002401017,26.2201385470991
12.2290557928651,-16.2848632646163,-9.23163725588846,-0.410420423348927,-24.4362428521858,-30.8236894697356,0.197873528359082,58.1599914432358,7.27564436249322,-41.9124010244255,24.6571370164056
12.8032345945082,-16.1917133043772,-9.15770723985577,-0.520144418522388,-24.3377977989384,-30.4376465142394,0.161274570656467,58.8686411313745,8.21677376353025,-40.3658259044634,23.0443067612683
13.369532417317,-16.0909828313632,-9.08367516915021,-0.629439708010546,-24.2356803228161,-30.0312159162919,0.119515105965472,59.5920363878822,9.1927537562406,-38.7583439917336,21.3878746487951
13.9262376217683,-15.9829830895636,-9.00993711512069,-0.738259299553137,-24.1303750514132,-29.604586281286,0.072430813887011,60.3290830420868,10.2014851390678,-37.0970619757098,19.695320896578
14.4717026406363,-15.8681154880663,-8.93686989748776,-0.846601880381513,-24.022267780912,-29.1580246224868,0.020072467333955,61.0787238509147,11.240546536187,-35.3904198394008,17.9753661115609
15.004347103799,-15.7468637763896,-8.86482182472456,-0.954507710360401,-23.911638838511,-28.6918687271283,-0.037289795988805,61.839945730709,12.3072152252326,-33.6481290770132,16.2378979424978
15.522660325979,-15.6197844158986,-8.79410373629742,-1.06205397469189,-23.7986602276923,-28.2065193052734,-0.0991674013102073,62.6117829564683,13.3984904605498,-31.8810446044986,14.4938289171514
16.0252033126539,-15.4874953782743,-8.72498058035091,-1.16934982463429,-23.6833965746171,-27.7024321622972,-0.164859353908968,63.393315886519,14.5111185865716,-30.1009662357764,12.7548821561649
16.5106104299053,-15.350663638176,-8.65766374995791,-1.27653132333104,-23.5658097658382,-27.1801106061438,-0.233463104102765,64.1836650333408,15.6416194750793,-28.3203719947645,11.0333085525386
16.9775908687733,-15.2099916571441,-8.59230438610869,-1.38375649158394,-23.4457670427794,-26.640098265944,-0.303889905627142,64.9819806046338,16.7863140621171,-26.552092946416,9.34154692571542
17.4249300153804,-15.0662031778984,-8.52898783561457,-1.49120061649097,-23.3230522015705,-26.0829724609782,-0.374884217141786,65.7874279547939,17.9413529612854,-24.8089465680663,7.69184643606013
17.8514908164105,-14.9200286609384,-8.46772942569565,-1.59905194778532,-23.197379444402,-25.5093382172627,-0.445046620615618,66.5991696878301,19.1027462666343,-23.1033516368963,6.0958767796897
18.2562152071723,-14.7721906982886,-8.40847168292649,-1.70750786668006,-23.0684093478157,-24.9198229848878,-0.512859674937104,67.4163454138839,20.2663947209805,-21.4469509789769,4.56435507008504
18.6381256479418,-14.6233897331832,-8.35108308194408,-1.81677157340725,-22.9357663585984,-24.3150720689094,-0.576716085640911,68.2380503622557,21.428122412264,-19.8502684738726,3.10671800620002
18.9963267948232,-14.4742904008017,-8.29535836023626,-1.92704930488711,-22.7990571990375,-23.6957447561888,-0.63494855150992,69.0633141778878,22.583711079257,-18.3224233807576,1.73086379380719
19.3300073148313,-14.325508784827,-8.24102038355423,-2.03854806487305,-22.6578895580892,-23.0625111012535,-0.685860648215896,69.8910812646114,23.7289359759649,-16.8709189735696,0.442980961975598
19.6384418417392,-14.1776008582453,-8.1877234978512,-2.1514738264472,-22.5118904623665,-22.4160493228134,-0.727758128506644,70.720193982585,24.8596030835169,-15.5015147621119,-0.752528058476195
19.9209930594325,-14.0310523450193,-8.13505826235248,-2.26603015103046,-22.3607237603182,-21.757043755149,-0.75898005418081,71.5493798622936,25.9715872935595,-14.2181835331865,-1.85303042705904
20.1771138926481,-13.8862702024315,-8.08255742533567,-2.38241715877734,-22.2041062130346,-21.0861832921226,-0.777929220157049,72.37724377412,27.0608710440607,-13.0231472447784,-2.85756395085847
20.4063497802679,-13.7435758821267,-8.02970297853911,-2.5008307806733,-22.041821763155,-20.404160253279,-0.783101375260374,73.2022657088723,28.1235827878032,-11.9169803015295,-3.76667269051501
20.6083410027334,-13.6032004819016,-7.97593410685949,-2.62146221988334,-21.8737336447353,-19.7116695909591,-0.773112779293567,74.0228045050464,29.1560346224876,-10.8987653795317,-4.58219776842561
20.7828250314609,-13.4652818516287,-7.92065583676324,-2.74449754729372,-21.6997940945171,-19.0094083476121,-0.746725660375712,74.8371075313338,30.1547584027533,-9.96628576960253,-5.30704479545823
20.9296388631449,-13.3298636672371,-7.8632481802226,-2.87011735538279,-21.52005152219,-18.298075266786,-0.702871156428658,75.6433260261603,31.1165396784708,-9.1162388205919,-5.94494759247037
21.0487212944791,-13.1968964383537,-7.80307557158842,-2.99849639852735,-21.334655091025,-17.5783704607006,-0.640669348604567,76.439535533193,32.0384488524488,-8.34445693561679,-6.50024436111679
21.140115082248,-13.0662403701267,-7.73949640091944,-3.12980315804174,-21.1438567488913,-16.8509950435292,-0.559446029705202,77.2237606666767,32.9178690159225,-7.64612513152242,-6.97767798946928
21.2039689195044,-12.9376699594194,-7.67187245488833,-3.26419928592384,-20.948010829178,-16.1166506563358,-0.458745898899838,77.9940032958473,33.7525199910208,-7.01598693385734,-7.38222753773222
21.2405391406333,-12.8108801707241,-7.59957808281649,-3.40183890026679,-20.7475714065308,-15.3760388392952,-0.338341928977812,78.7482731480696,34.5404781768875,-6.44853298594121,-7.71897373848757
21.2501910470159,-12.685494008601,-7.52200891234419,-3.54286772482438,-20.5430876406804,-14.629860246317,-0.198240706464253,79.4846197876464,35.2801918573769,-5.93816895508531,-7.99299794230131
21.2333997217774,-12.5610712823995,-7.43858995122625,-3.68742208288522,-20.3351973721711,-13.8788137392048,-0.0386835984164425,80.2011649238586,35.9704916855977,-5.4793609954391,-8.20931150063931
21.1907501782592,-12.4371183464565,-7.34878293192789,-3.83562776995502,-20.1246192470574,-13.1235954356163,0.139856340643755,80.8961340319553,36.610596119401,-5.06675818262054,-8.3728110676203
21.1229366643846,-12.3130985950449,-7.2520927838866,-3.9875988395479,-19.9121436463282,-12.3648978124204,0.336681735295346,81.5678863319026,37.2001116491977,-4.69529207896098,-8.48825455363752
21.0307609263171,-12.1884434950038,-7.14807315167373,-4.1434363396988,-19.6986226846105,-11.6034089811262,0.550882450773235,82.2149422600943,37.7390277399781,-4.36025405122315,-8.56025227735435
20.9151292223294,-12.0625639481167,-7.03633091178247,-4.30322703325438,-19.4849595243711,-10.8398122554464,0.781351158207849,82.8360076827568,38.2277065022378,-4.05735125281133,-8.59326807178038
20.7770478742587,-11.9348617876061,-6.91652967277816,-4.46704212445267,-19.2720972263044,-10.0747861253247,1.02680259027612,83.4299942263669,38.6668672094049,-3.78274239328259,-8.59162557901437
20.6176171519377,-11.8047412268793,-6.78839227167218,-4.63493600380429,-19.0610073254782,-9.30900473798848,1.28579606559714,83.9960352331054,39.0575658937796,-3.53305462599647,-8.55951562119395
20.4380233078966,-11.6716200924351,-6.65170230426203,-4.80694502024282,-18.8526782909459,-8.5431389635339,1.5567607825642,84.5334969858971,39.4011703796935,-3.30538312054129,-8.50100129853398
20.2395286173421,-11.5349406847825,-6.50630474968883,-4.98308629752547,-18.6481039988757,-7.77785808958428,1.83802333493292,85.0419849861274,39.6993312447624,-3.09727513543634,-8.4200183019191
20.023459333195,-11.3941801198982,-6.35210576961582,-5.16335662762459,-18.4482723295381,-7.01383214727448,2.12783686717817,85.5213452060119,39.9539493260506,-2.90670064837377,-8.32036880962647
19.7911915381905,-11.2488600100596,-6.18907177933155,-5.34773148908728,-18.2541539882339,-6.25173482036088,2.42441125346898,85.9716603754787,40.16714049655,-2.73201183835615,-8.20570823347833
19.5441349650225,-11.0985553497282,-6.01722790006673,-5.53616424502316,-18.0666916462161,-5.49224683375291,2.7259436474287,86.3932414956083,40.3411985183452,-2.57189395538644,-8.07952495174764
19.2837149592333,-10.9429024817667,-5.83665590711768,-5.72858556987826,-17.8867894950197,-4.73605966231786,3.03064871828254,86.786614889728,40.4785568242065,-2.42531033707109,-7.94511397736275
19.0113528745059,-10.7816060315723,-5.6474917863634,-5.92490313854234,-17.7153033057973,-3.98387935024282,3.33678787310938,87.1525052051827,40.5817500865559,-2.2914444784087,-7.80554622211949
18.7284453110998,-10.614444710513,-5.44992300309532,-6.12500159145337,-17.5530310869999,-3.23643018990182,3.64269677225768,87.4918148650204,40.6533764039843,-2.16964207108565,-7.66363558342709
18.4363427286056,-10.4412759049894,-5.24418557248829,-6.328742770837,-17.4007044398855,-2.49445798227193,3.94681047867002,87.8056005420519,40.6960608762618,-2.05935577915737,-7.52190644549585
18.1363280757608,-10.2620389846461,-5.03056100108813,-6.53596620874115,-17.2589807191532,-1.75873259334261,4.24768564194302,88.0950472889628,40.7124212579159,-1.96009522330698,-7.38256430684517
17.8295961733817,-10.076757284236,-4.8093731452749,-6.7464898373364,-17.128436111853,-1.03004953378294,4.54401920316179,88.3614410068823,40.7050362885942,-1.87138422482775,-7.24747210100053
17.5172346516771,-9.88553873806562,-4.58098500991403,-6.96011088588306,-17.0095597504264,-0.309230318662419,4.8346632146799,88.6061399693764,40.6764172049736,-1.79272682078512,-7.11813438337916
17.2002072708154,-9.68857517125033,-4.34579549292643,-7.17660692684547,-16.9027489764057,0.402878594290082,5.11863549589808,88.8305461362272,40.6289828486484,-1.72358292521673,-6.99569096791688
16.8793404356,-9.48614027590149,-4.10423607192201,-7.39573703533894,-16.8083058696388,1.10540843703252,5.39512598519082,89.0360769882374,40.5650386938733,-1.66335383614856,-6.88092088808878
16.5553136461129,-9.27858632290174,-3.85676742726749,-7.61724303032681,-16.7264351501608,1.79747242021456,5.66349879163892,89.224138588562,40.4867600182082,-1.61137714740842,-6.77425680593581
16.2286545046466,-9.06633968216749,-3.60387599982779,-7.8408507721812,-16.657243542021,2.47817169339092,5.92329009081862,89.3961005276974,40.396179319854,-1.56693006741151,-6.67580926853289
15.8997387282371,-8.84989524557565,-3.34607048792556,-8.06627149976142,-16.6007406607138,3.14660291590751,6.17420214096784,89.5532733399974,40.2951779496007,-1.52923969938532,-6.58539957589081
15.5687954037374,-8.6298098642852,-3.08387829423631,-8.29320320096177,-16.556841452399,3.80186730385423,6.41609381437844,89.6968888919073,40.1854817833354,-1.49749852596214,-6.50259952956673
15.2359174814287,-8.40669492408747,-2.81784193843375,-8.52133202204002,-16.5253701767263,4.4430809481957,6.64896813776139,89.8280841386838,40.0686606251045,-1.47088319613374,-6.42677601116683
14.901077250179,-8.18120818999101,-2.54851545525694,-8.75033373087654,-16.5060658856672,5.06938613501868,6.8729574087017,89.9478885310073,39.9461309115949,-1.44857473844411,-6.35713820519031
14.564146290714,-7.95404505758561,-2.27646080017932,-8.97987525669738,-16.4985893083762,5.67996334455573,7.08830649998356,90.0572152314326,39.819161196697,-1.42977849174712,-6.29278532001133
14.2249191822723,-7.72592935584016,-2.00224428611598,-9.2096163332413,-16.5025310086512,6.27404356556592,7.29535497909528,90.1568561793042,39.6888798361056,-1.41374231508588,-6.23275284623934
13.8831400582253,-7.49760385388537,-1.7264330739906,-9.43921127259919,-16.5174206385553,6.850920537591,7.49451865726378,90.2474809250642,39.5562842663756,-1.39977197502339,-6.17605568473405
13.5385309806144,-7.26982063129958,-1.4495917359362,-9.66831089166197,-16.5427370701061,7.40996252486135,7.68627114163864,90.3296390413765,39.4222512756913,-1.38724297319033,-6.12172683436547
13.1908210391014,-7.04333147486062,-1.17227890225572,-9.89656460303302,-16.5779191496018,7.95062323227649,7.87112589884403,90.4037658109497,39.2875476919154,-1.3756084314482,-6.0688507114012
12.8397750778143,-6.81887846310807,-0.895043995113792,-10.1236226706336,-16.6223767912569,8.47245149848039,8.04961925686661,90.4701907948111,39.1528409679453,-1.36440297172732,-6.01659054482152
12.4852210097115,-6.59718489369938,-0.61842404733428,-10.3491386199595,-16.6755021122898,8.97509944517538,8.22229468701168,90.529148806533,39.0187092243324,-1.35324279953333,-5.96420963195515
12.1270747834957,-6.37894669834934,-0.342940604922959,-10.5727717844531,-16.7366803111158,9.45832882214435,8.38968862692256,90.5807927615786,38.8856504091747,-1.341822416341,-5.91108653353807
11.7653622107678,-6.16482447653877,-0.0690967149968982,-10.7941899627528,-16.8053000030547,9.92201535647981,8.55231803481282,90.6252078380732,38.754090347474,-1.32990854076832,-5.85672453099653
11.4002370274542,-5.95543626249752,0.202625996307062,-11.0130721582869,-16.8807627537177,10.3661509844395,8.71066980909293,90.662426376829,38.6243895675867,-1.31733191068809,-5.80075585881821
11.0319947400098,-5.75135112115401,0.471770150175836,-11.229111373542,-16.9624915885317,10.7908439099647,8.86519216633545,90.6924429655199,38.4968489010299,-1.30397767449338,-5.74294135668408
10.6610819811558,-5.55308364940763,0.737905339081252,-11.4420174330382,-17.0499383054797,11.1963164944815,9.01628803446003,90.7152291950266,38.3717139444626,-1.28977507288345,-5.68316625585058
10.2881012616782,-5.36108944045196,1.00063073750954,-11.6515198059247,-17.1425894730204,11.5829010419787,9.16431047508834,90.7307476419014,38.2491785438274,-1.27468707881655,-5.62143282880231
9.91381114633452,-5.17576155078976,1.25957757842716,-11.857370388595,-17.2399710521061,11.9510336058786,9.30956009496623,90.7389647107336,38.1293875105514,-1.25870061292794,-5.5578506082076
9.5391219979998,-4.99742799076246,1.51441146011652,-12.0593461921742,-17.3416516364913,12.3012460082789,9.45228434542858,90.7398620531431,38.0124388132582,-1.24181788323395,-5.49262483883304
9.16508752209432,-4.82635023867242,1.76483443510878,-12.2572518630792,-17.4472443533737,12.6341563181582,9.59267854698512,90.7334463583233,37.8983855101263,-1.22404929932223,-5.42604377439696
8.79289240251972,-4.66272275577004,2.01058682626326,-12.4509219503279,-17.5564074985196,12.9504580722552,9.73088841772468,90.7197573788091,37.7872376922803,-1.20540827036633,-5.35846537122271
8.42383635217719,-4.50667345584199,2.25144871524347,-12.6402228247363,-17.6688439925591,13.2509085371878,9.8670138348927,90.6988741127008,37.6789646849473,-1.18590801862928,-5.2903038572501
8.05931490890794,-4.3582650611445,2.48724105327196,-12.8250541561946,-17.7842997451265,13.5363163095611,10.0011135257292,90.6709191129319,37.5734976944452,-1.16556035584042,-5.22201656563144
7.70079729661497,-4.21749725822011,2.71782635016087,-13.0053498660485,-17.9025610138946,13.8075285415679,10.1332103719207,90.6360609413416,37.4707330051902,-1.14437621557042,-5.15409132113355
7.34980164900713,-4.08430955468889,2.94310890333096,-13.181078489732,-18.0234508547,14.065418070586,10.2632970239111,90.5945148334046,37.3705357407341,-1.12236762824656,-5.0870345644188
7.00786787047275,-3.95858473275544,3.16303453391617,-13.3522429083028,-18.1468247770523,14.3108707257275,10.3913415547607,90.5465416861844,37.2727441221221,-1.09955076368805,-5.02136030347038
6.67652839936735,-3.84015279585139,3.37758980334371,-13.518879435255,-18.2725657432912,14.5447730809387,10.5172929323744,90.4924455242674,37.1771740948684,-1.07594964137563,-4.95757990096011
6.35727716194779,-3.72879530748626,3.58680069140506,-13.6810562744996,-18.4005786791787,14.7680009194701,10.6410861462887,90.4325696366006,37.0836241598894,-1.05160011640282,-4.89619264930183
6.05153708235773,-3.62425002208136,3.79073072599464,-13.8388713926611,-18.5307846991652,14.9814086640834,10.7626468826315,90.367291611299,36.9918802390915,-1.02655378138941,-4.83767705712941
5.76062666867388,-3.52621570595891,3.98947856764829,-13.9924498696996,-18.6631152852429,15.1858200074173,10.8818956893174,90.2970175202996,36.9017204288478,-1.0008814697049,-4.78248277029392
