Finger Velocity,Scap_X,Scap_Y,Scap_Z,Shoulder horiz abd-adduction,Shoulder flexion-extension,Shoulder internal-external rotation,elbow flexion-extension,forearm pronation-supination,wrist flexion-extension,wrist radial-ulnar deviation
0.890091587817922,-16.1867979184405,-9.95362286464672,-0.888143531453557,-23.8692006939412,-33.6917165243143,3.53416725128006,45.8500075871943,-2.23118996745193,-56.1591635387974,41.656306096937
0.985514103985067,-16.1888740936956,-9.96729415166632,-0.878627590372445,-23.8855095535019,-33.6807808229818,3.50441470271329,45.8843154545424,-2.10454404028644,-56.0268155225274,41.5614893889404
1.0895172179646,-16.1912809136075,-9.9816657953418,-0.86874801388964,-23.9051441729628,-33.6703191608989,3.47277762717274,45.9234212416408,-1.96820891776314,-55.8670557529643,41.442728819461
1.2025553973074,-16.19406846023,-9.99665689500766,-0.858619908380575,-23.9281289108481,-33.660528060554,3.43948504012504,45.967540060326,-1.8223123776451,-55.6787078516047,41.2985293115305
1.32497142320556,-16.1972823192111,-10.0121782227282,-0.848373813615841,-23.9544250260612,-33.6516061224766,3.40480269012545,46.0168551378264,-1.66702563259841,-55.4609681320203,41.1276609000426
1.45698449688346,-16.2009614889896,-10.0281340255308,-0.838154176106806,-23.9839253149856,-33.6437502993929,3.36903088274924,46.0715138799419,-1.50255516626652,-55.2134480584811,40.9291968893538
1.59868376006444,-16.2051362431684,-10.0444239886842,-0.82811739151923,-24.016449660336,-33.6371520154692,3.33250183497835,46.1316240959476,-1.32913457607183,-54.9362085867377,40.7025455239125
1.75002650844876,-16.2098260100857,-10.0609453110763,-0.818429432741242,-24.0517416286101,-33.6319932134841,3.29557664764384,46.1972504133317,-1.14701689080911,-54.6297848180131,40.447473781217
1.91084019914448,-16.2150373346647,-10.0775948428349,-0.809263094205735,-24.0894662357763,-33.6284424181962,3.25864198605457,46.2684109255679,-0.956467768586139,-54.2951997257684,40.1641221640126
2.08082732263298,-16.2207619862003,-10.0942712337274,-0.800794896624547,-24.1292089826348,-33.6266509069904,3.2221065531424,46.3450741364875,-0.757759884170084,-53.9339661179038,39.8530097014014
2.25957226888267,-16.2269752721106,-10.110877039869,-0.793201708404975,-24.1704762425762,-33.6267490768163,3.18639742574089,46.4271562855523,-0.551168696555425,-53.5480764532395,39.5150287585178
2.44654941738433,-16.2336346120795,-10.1273207369641,-0.786657150929302,-24.2126970646522,-33.6288430892658,3.15195630566832,46.5145191544056,-0.33696966376033,-53.1399806152895,39.1514296836171
2.6411317911601,-16.2406784200761,-10.143518590611,-0.781327864926298,-24.2552264331301,-33.6330118649945,3.11923571564928,46.6069684639481,-0.115436859351808,-52.7125522281358,38.7637957563788
2.84259972046133,-16.2480253343416,-10.1593963373781,-0.777369723956342,-24.2973500008565,-33.6393044864697,3.08869514788062,46.7042529729216,0.113157142356677,-52.2690445470429,38.3540093040483
3.05014905972684,-16.2555738283114,-10.1748906334564,-0.774924088085869,-24.3382902884344,-33.6477380560651,3.0607971531103,46.8060643842062,0.348540300498755,-51.8130373401334,37.9242101961064
3.26289859451444,-16.2632022288846,-10.1899502299328,-0.774114195955658,-24.3772143156023,-33.6582960463531,3.03600334340393,46.9120381533256,0.590439271624431,-51.3483764683626,37.4767481986008
3.47989636871344,-16.2707691622232,-10.2045368355055,-0.775041796178001,-24.4132426064072,-33.670927171301,3.01477027328292,47.0217552742575,0.838576909511913,-50.8791080504914,37.0141308539735
3.70012476087492,-16.2781144408106,-10.2186256304844,-0.777784118493984,-24.4454594858792,-33.6855447998884,2.99754516042876,47.1347450911947,1.09266928499312,-50.4094091718915,36.5389686428342
3.92250424426014,-16.2850603981528,-10.2322054018827,-0.782391280799755,-24.4729245621196,-33.7020269260797,2.98476140680862,47.2504891541014,1.35242238045455,-49.9435170841895,36.053919185256
4.14589587775118,-16.291413668704,-10.2452782788471,-0.788884219990969,-24.494685263125,-33.7202167003985,2.97683388234382,47.3684261044286,1.61752858674151,-49.4856587693725,35.5616321668163
4.36910269092235,-16.2969674001416,-10.257859060252,-0.797253222945207,-24.509790271781,-33.7399235180507,2.97415393596651,47.4879575474447,1.88766311387096,-49.039982616103,35.0646965460307
4.59087024089691,-16.3015038734972,-10.26997414143,-0.80745711952006,-24.5173036746041,-33.7609246461536,2.97708410582407,47.6084548385725,2.16248042413173,-48.6104937820291,34.5655914296844
4.80988672409864,-16.3047974948255,-10.2816600639266,-0.81942318307994,-24.5163196094741,-33.7829673580243,2.98595251699572,47.7292666801194,2.44161080420263,-48.2009946063732,34.066641806296
5.02478311492832,-16.3066181110573,-10.2929617297398,-0.833047766589689,-24.5059771653628,-33.8057715264514,3.00104698582979,47.8497273899827,2.72465720644528,-47.8150312100525,33.5699801215143
5.23413386824963,-16.3067345931616,-10.3039303382521,-0.848197684260253,-24.4854752549519,-33.8290326123848,3.02260889454031,47.9691656665133,3.01119250285849,-47.4558471854289,33.077514473074
5.4364587569855,-16.3049186219855,-10.3146211182506,-0.864712330622728,-24.4540871514236,-33.8524249731301,3.05082695327916,48.0869136367332,3.30075730267181,-47.1263450299192,32.5909039965515
5.63022641566662,-16.3009486059052,-10.3250909374171,-0.882406511391298,-24.4111743552664,-33.8756054072847,3.08583102362957,48.2023159408466,3.59285847973215,-46.8290557081738,32.1115417961097
5.81386012351546,-16.2946136541814,-10.3353958767602,-0.901073943704731,-24.35619943731,-33.8982168535821,3.1276862316956,48.3147385758387,3.8869685329871,-46.5661164342446,31.6405455367972
5.98574628751005,-16.2857175252762,-10.3455888581033,-0.920491366760353,-24.2887374928596,-33.919892167335,3.17638764482614,48.4235771975512,4.18252586140449,-46.3392564541039,31.1787555595878
6.1442459806098,-16.2740824653956,-10.355717409899,-0.940423187130423,-24.2084858413737,-33.940257909385,3.2318558181315,48.5282645681135,4.47893597866006,-46.1497902888317,30.7267401223131
6.28770975925606,-16.2595528498322,-10.3658216509778,-0.960626566605348,-24.1152716183671,-33.9589380952079,3.29393353201305,48.6282768377565,4.77557363138181,-45.9986175806503,30.2848071255553
6.41449583571229,-16.241998538832,-10.3759325637496,-0.980856844504567,-24.0090569324585,-33.9755578626855,3.36238403776246,48.7231383685376,5.07178572577661,-45.8862283893335,29.8530214678942
6.52299152443382,-16.2213178605912,-10.3860706180666,-1.000873170532,-23.8899413026578,-33.9897470239312,3.43689110123545,48.8124248429304,5.36689491767887,-45.8127125534332,29.4312270107184
6.61163772767464,-16.1974401363245,-10.3962447946048,-1.02044420794033,-23.7581611514177,-34.0011434693842,3.51706107991873,48.8957644533685,5.66020368611591,-45.7777716049748,29.0190720460377
6.67895608403451,-16.1703276661105,-10.4064520428736,-1.0393537502914,-23.6140862089917,-34.0093963924115,3.60242718457923,48.9728370405837,5.95099869490852,-45.7807317448036,28.6160371722774
6.72357828401095,-16.1399770993157,-10.4166771950157,-1.05740608004239,-23.4582127827945,-34.0141693016297,3.69245596779952,49.0433711387757,6.23855525177902,-45.8205565651093,28.2214645930819
6.74427696718376,-16.1064201198641,-10.4268933431724,-1.07443088688199,-23.2911539564479,-34.0151427877189,3.78655595887172,49.1071389918853,6.52214169656759,-45.8958585388851,27.834588035911
6.73999756358765,-16.0697233850986,-10.4370626752323,-1.09028756252993,-23.1136268997499,-34.0120170121661,3.88408824055267,49.1639497221503,6.80102358405523,-46.0049087608118,27.4545626984892
6.70989043327584,-16.0299876682687,-10.4471377507687,-1.10486869985683,-22.9264375870401,-34.0045138853541,3.98437864940653,49.2136409504925,7.07446756921045,-46.145644995253,27.0804948377953
6.65334269859522,-15.9873461694062,-10.457063185595,-1.1181026483529,-22.7304633332963,-33.992378897742,4.08673118650955,49.2560692758644,7.34174495411172,-46.3156787375631,26.7114708047602
6.57000925894269,-15.9419619784178,-10.4667776993452,-1.12995501340013,-22.5266336592931,-33.9753825600905,4.19044215488455,49.291100105229,7.60213491845898,-46.512302685847,26.3465854976752
6.45984263449439,-15.8940246983274,-10.476216465705,-1.14042903033693,-22.3159100805282,-33.9533214016983,4.29481449810092,49.3185973785537,7.85492752737711,-46.7325006988817,25.9849703574352
6.32312151272102,-15.8437462649931,-10.4853136898349,-1.14956479238207,-22.0992654709474,-33.9260184769558,4.39917180426873,49.3384137499693,8.09942668171856,-46.9729628972132,25.6258211351768
6.16047818251329,-15.7913560305005,-10.494005323292,-1.15743736026777,-21.8776636782099,-33.8933233436548,4.50287146127287,49.3503817672021,8.33495323268117,-47.2301088746582,25.2684256503851
5.97292545425621,-15.7370952090928,-10.5022318149092,-1.16415382704732,-21.6520400637415,-33.8551114990995,4.60531649700723,49.3543065396126,8.56084850763598,-47.5001217707972,24.9121915069013
5.76188420615958,-15.6812108152572,-10.5099407881185,-1.16984945073397,-21.4232836109708,-33.8112832874822,4.70596570461548,49.3499603047017,8.77647847260421,-47.7789950381036,24.5566731895729
5.52921340026286,-15.6239492510996,-10.5170895319911,-1.17468299825052,-21.1922211912806,-33.7617623202187,4.80434173120931,49.3370791982354,8.98123868303201,-48.0625922146615,24.2015972401424
5.27724530907644,-15.5655497217191,-10.5236471952962,-1.17883146598105,-20.9596045016507,-33.7064934766797,4.90003689424881,49.3153624115762,9.17456005940038,-48.3467182701286,23.8468835857144
5.00882979821633,-15.5062376707757,-10.5295965809009,-1.182484355533,-20.7261000934406,-33.6454405734297,4.99271657653137,49.2844737933336,9.35591539470552,-48.6271996450692,23.4926608679772
4.72739275380292,-15.4462184326328,-10.5349354526515,-1.18583768961067,-20.4922827996529,-33.5785838051106,5.08212013344759,49.2440458332172,9.52482638891223,-48.8999693173534,23.1392739359186
4.43701483035301,-15.3856712921981,-10.5396772884637,-1.18908795406825,-20.2586327374664,-33.5059170716785,5.16805932426603,49.1936858603187,9.68087093585181,-49.1611531058219,22.7872824236233
4.14253676380584,-15.3247441296868,-10.5438514406806,-1.19242614983405,-20.0255359135145,-33.4274453188693,5.2504143557703,49.1329841970732,9.82369037256359,-49.4071537006096,22.4374502973868
3.84969440569832,-15.2635488066403,-10.5475026960513,-1.19603213331936,-19.7932882961554,-33.3431820342769,5.32912770513602,49.0615239354066,9.95299643785595,-49.6347293534683,22.0907271715234
3.56527567652527,-15.2021574241633,-10.5506902603427,-1.20006941625671,-19.5621030535902,-33.253147057984,5.40419597183464,48.9788919467101,10.0685777591461,-49.8410646646788,21.7482228792835
3.29726386630991,-15.1405995576361,-10.553486223363,-1.20468058508293,-19.332120505597,-33.1573648758096,5.47566009435828,48.8846907052894,10.1703057645206,-50.0238314057066,21.4111771637104
3.05487433942211,-15.0788605469734,-10.5559735858701,-1.20998348483687,-19.1034202162445,-33.0558635545444,5.5435943498363,48.7785504965465,10.2581399672216,-50.1812377428459,21.0809264262586
2.84829924876737,-15.0168808992325,-10.5582439482887,-1.21606829169402,-18.8760345762345,-32.9486744468304,5.60809462351195,48.660141594478,10.3321325699734,-50.3120645190771,20.7588692882989
2.68788776101387,-14.9545568404382,-10.5603949718355,-1.22299557056475,-18.6499631889173,-32.8358327414245,5.66926648293475,48.5291860223547,10.3924322849579,-50.4156874176775,20.446432360376
2.58255427286517,-14.8917420339865,-10.5625277261435,-1.23079537913933,-18.4251873787285,-32.7173788707062,5.72721361344249,48.3854685469264,10.4392871822689,-50.4920839452768,20.145037176739
2.53763370870473,-14.8282504619555,-10.564744034408,-1.23946743828302,-18.2016841764598,-32.5933607220087,5.78202716301088,48.2288465927995,10.4730463007712,-50.5418243308526,19.8560688412611
2.5531001511959,-14.7638604417894,-10.5671439177147,-1.24898234359818,-17.9794391939234,-32.4638365428142,5.83377650440549,48.0592587972765,10.4941597159191,-50.5660457208285,19.5808466223348
2.62329155409266,-14.6983197234083,-10.5698232250395,-1.25928374833847,-17.7584578752909,-32.3288783882086,5.88250185352812,47.8767319591145,10.5031767792045,-50.5664094998167,19.3205965626464
2.73841537855702,-14.6313515804924,-10.5728715157294,-1.27029140753986,-17.5387747016978,-32.1885759321509,5.9282090902952,47.6813861714531,10.500742321597,-50.5450421753609,19.0764261313963
2.88690599264486,-14.5626617749839,-10.5763702391725,-1.28190494023279,-17.3204600297537,-32.0430404482564,5.9708670180814,47.4734379730275,10.4875907295647,-50.5044610008784,18.8493010195678
3.05744588220262,-14.4919462375467,-10.5803912348287,-1.29400814275771,-17.1036243614418,-31.8924087577413,6.01040717544314,47.2532014033465,10.4645379304049,-50.4474863446021,18.6400243349123
3.24011367172962,-14.4188992717776,-10.5849955586171,-1.30647367179133,-16.8884199663582,-31.7368469402546,6.04672618545842,47.021086904764,10.4324714394062,-50.3771437083691,18.4492186555518
3.42676824509118,-14.3432220594707,-10.59023263193,-1.31916790995648,-16.6750398992196,-31.5765536063195,6.07969049932704,46.7775980751145,10.3923387106728,-50.2965591802561,18.2773116013958
3.6109941525052,-14.2646312207338,-10.5961397075787,-1.33195582925623,-16.4637145689921,-31.4117625384434,6.10914326790541,46.5233263380593,10.345134093869,-50.2088528391326,18.1245257287664
3.78787128476948,-14.182867168439,-10.6027416501398,-1.34470567764533,-16.254706115434,-31.2427445244219,6.13491296476308,46.2589436630837,10.2918847345095,-50.1170350683321,17.990873599325
3.95371258830295,-14.0977019934787,-10.6100510324801,-1.35729333073479,-16.0483009306382,-31.0698082329548,6.15682329495025,45.9851935294304,10.2336357713962,-50.0239107640281,17.876158785723
4.10582875442798,-14.0089466269106,-10.6180685522553,-1.36960617214726,-15.8448007264484,-30.8933000171311,6.17470386153523,45.7028803844268,10.1714351892936,-49.931996000165,17.7799833419053
4.24233522690058,-13.916457046939,-10.6267837701505,-1.38154639058429,-15.644512594747,-30.7136025725835,6.1884010311685,45.4128578952222,10.1063186867399,-49.8434508765327,17.7017619066696
4.36199908505054,-13.8201393310364,-10.6361761657056,-1.39303360763335,-15.4477385372729,-30.5311324217768,6.19778844145741,45.1160163331344,10.0392949214201,-49.7600311327057,17.6407421740537
4.46411809759465,-13.7199533941463,-10.6462164975228,-1.40400677639248,-15.2547649530762,-30.3463362429078,6.20277662422635,44.8132694592342,9.97133149480232,-49.6830598006825,17.5960310121337
4.54842405277596,-13.615915300305,-10.6568684424841,-1.4144253163338,-15.0658525619538,-30.1596861115922,6.20332127403136,44.5055412950178,9.90334202856563,-49.6134188475927,17.566625094972
4.61500390230398,-13.508098084501,-10.66809047283,-1.42426947457896,-14.881227209717,-29.9716737767637,6.19942976457297,44.1937531610941,9.83617466702835,-49.5515595594947,17.5514445711678
4.66423392149343,-13.3966310719435,-10.6798379109397,-1.43353992913592,-14.7010719471118,-29.7828041486332,6.1911656043328,43.8788113508064,9.77060231427685,-49.4975294322301,17.5493680585599
4.69672351924998,-13.2816977318491,-10.6920650810528,-1.44225667682533,-14.5255207018363,-29.5935882330828,6.17865062683684,43.5615957775292,9.70731488110946,-49.4510126202998,17.5592671546717
4.71326643012001,-13.1635321513466,-10.704727457676,-1.45045727646766,-14.3546537769905,-29.404535797064,6.16206482716064,43.2429498963341,9.64691376960588,-49.4113805649519,17.5800387026825
4.71479781476702,-13.0424142606496,-10.7177836961688,-1.45819454264706,-14.1884953153328,-29.2161480845371,6.14164387539122,42.9236721535977,9.58990875563689,-49.3777492663879,17.6106332500754
4.70235634508518,-12.9186639815744,-10.7311974273365,-1.46553380362251,-14.0270127730526,-29.0289109133813,6.11767444936357,42.6045091621857,9.53671734020401,-49.3490397671189,17.6500784606135
4.67705071413309,-12.7926345066666,-10.7449387084246,-1.47254984838754,-13.8701183544082,-28.8432884652905,6.09048762734663,42.2861507352357,9.48766653431877,-49.3240387500494,17.6974966569999
4.64003023684857,-12.6647049445493,-10.7589850465973,-1.47932369408214,-13.7176722740288,-28.6597180337801,6.06045066498649,41.9692268389359,9.44299692917133,-49.3014566630333,17.7521161358264
4.59245933177866,-12.5352725862587,-10.7733219428161,-1.48593930679543,-13.5694876427401,-28.4786059262514,6.02795754895493,41.6543064468108,9.402868794281,-49.279981365536,17.8132763510124
4.53549572484111,-12.4047450536304,-10.7879429385043,-1.49248040582353,-13.4253367217159,-28.3003246340311,5.99341877042067,41.3418982004473,9.3673698491087,-49.2583258707484,17.8804274528058
4.47027221530502,-12.2735325815968,-10.8028491800625,-1.49902747296143,-13.2849582617185,-28.1252112997022,5.95725079090177,41.0324527101692,9.33652427247569,-49.2352692865762,17.9531249607342
4.39788180952897,-12.142040662783,-10.8180485436126,-1.50565507400983,-13.1480656363629,-27.9535674324074,5.91986567638542,40.7263662669803,9.31030245196666,-49.2096905219948,18.0310205253573
4.31936597459678,-12.0106632506509,-10.8335543820265,-1.51242957969929,-13.0143554828361,-27.7856597537799,5.8816613501287,40.4239856848943,9.28863093838316,-49.1805947040022,18.1138497968083
4.23570570494769,-11.8797766836569,-10.8493839686035,-1.51940734980303,-12.8835165718778,-27.6217220008882,5.84301286272186,40.1256139524573,9.27140206943107,-49.1471325333281,18.2014183845414
4.14781504179114,-11.7497344611483,-10.8655567194406,-1.52663342073682,-12.7552386372643,-27.4619574676945,5.80426500623895,39.831516348427,9.25848277268402,-49.1086129958741,18.2935867897056
4.05653664705435,-11.6208629709875,-10.8820922825415,-1.53414071529669,-12.6292209055018,-27.3065420331701,5.76572651456708,39.5419266731837,9.24972214933999,-49.0645099528523,18.3902550486757
3.96263901815683,-11.4934582366803,-10.8990085861283,-1.54194977204171,-12.5051800829583,-27.1556274047432,5.72766600013234,39.2570532643808,9.2449575601483,-49.0144631728247,18.4913476698085
3.86681494170469,-11.3677837177047,-10.9163199389617,-1.55006896916075,-12.3828575821059,-27.0093443043751,5.6903096836034,38.9770844992966,9.24401905925337,-48.9582743682909,18.5967992990292
3.76968082486135,-11.2440691625705,-10.9340352698126,-1.55849519431771,-12.2620257995917,-26.8678053440636,5.65384088331699,38.7021935339954,9.24673213442349,-48.89589878812,18.7065414322296
3.67177661098824,-11.1225104818268,-10.9521565822873,-1.56721489149474,-12.1424932938611,-26.7311073763243,5.61840115004164,38.4325420877918,9.25291880938915,-48.8274329193345,18.8204904106934
3.57356607617,-11.0032705788615,-10.9706776872236,-1.57620540142527,-12.0241087471216,-26.599333157948,5.58409286323633,38.168283146791,9.26239724810707,-48.7530988784676,18.938536883346
3.47543740746381,-10.8864810507513,-10.9895832598551,-1.58543650513837,-11.9067636345078,-26.4725522255534,5.55098304829602,37.9095625276431,9.27498007283945,-48.6732261225157,19.0605368862051
3.37770407182865,-10.7722446505199,-11.0088482538238,-1.59487208036579,-11.7903935614858,-26.350820943308,5.51910813057815,37.6565193083074,9.29047166635183,-48.5882311730701,19.1863046686895
3.28060608504549,-10.6606383860725,-11.0284376885427,-1.60447178696784,-11.6749782677633,-26.2341817434142,5.48847931152782,37.4092851947592,9.30866477126159,-48.4985961092087,19.3156073834127
3.18431187084132,-10.5517171186345,-11.0483068094246,-1.6141927080435,-11.5605403322604,-26.1226616378204,5.45908823656795,37.1679829501286,9.32933672548887,-48.4048466227918,19.4481617424723
3.08892095164351,-10.4455175129606,-11.068401602475,-1.62399088566116,-11.4471426505105,-26.0162701340106,5.43091262668995,36.9327240639073,9.3522456802366,-48.3075304214965,19.5836327182322
2.99446772666309,-10.3420621819125,-11.0886596284627,-1.63382270259077,-11.334884794068,-25.9149967348917,5.40392156869089,36.7036058814285,9.37712713403974,-48.2071967067965,19.7216343181793
