Finger Velocity,Scap_X,Scap_Y,Scap_Z,Shoulder horiz abd-adduction,Shoulder flexion-extension,Shoulder internal-external rotation,elbow flexion-extension,forearm pronation-supination,wrist flexion-extension,wrist radial-ulnar deviation
2.15596871962418,-10.7303625600355,-22.7845236244545,8.4102572819686,-21.2041774198017,-40.3971802234438,-11.3770430178717,67.8238146045994,-42.2524572100998,18.7153183461386,-23.7602624253
2.80077952748819,-10.7534516206803,-22.776221814392,8.34121866345215,-21.5221857251853,-40.1674995486051,-11.4670788085068,68.0406119675376,-41.5308914192387,18.8763851269905,-23.8169159300959
3.52016617902858,-10.7829356064645,-22.7644423161381,8.26545042363431,-21.8552247150333,-39.9155360999165,-11.5585343482236,68.309387509824,-40.7831974641497,19.0207288948582,-23.8456487511874
4.30919201979211,-10.8192775593947,-22.748583867683,8.18264326473952,-22.202029985777,-39.6396497256008,-11.6501189980913,68.6338062319694,-40.0119234330539,19.1432891001002,-23.843918606148
5.16374578949315,-10.8629033506677,-22.7280055850794,8.09247674954565,-22.5611033565189,-39.3382398280739,-11.7404070332753,69.0171540419331,-39.2195942628493,19.2393788186832,-23.8101132281324
6.07972519949575,-10.914195902518,-22.7020317959435,7.99461859607155,-22.9307159635107,-39.0097723109114,-11.8278506038324,69.4622822554878,-38.40865530814,19.3048207466481,-23.743614023334
7.05268449236364,-10.9734897777345,-22.6699579190205,7.88872468307239,-23.3089174105038,-38.6528061112443,-11.9107956253773,69.9715602166369,-37.5814245588205,19.3360458527612,-23.6447882916148
8.07768174432833,-11.0410661586934,-22.631057340742,7.77443989571156,-23.693551428033,-38.266018455376,-11.9875003788786,70.546836401925,-36.7400558254931,19.3301560891203,-23.514913831709
9.14922283711803,-11.117148242308,-22.5845892069355,7.65139992129008,-24.0822781588641,-37.848227984009,-12.0561565196613,71.1894078631334,-35.8865146021331,19.2849555215269,-23.3560455997428
10.2612580710939,-11.2018970823342,-22.5298070186025,7.51923407392828,-24.4726028089011,-37.3984149355756,-12.114912105845,71.8999974094825,-35.022567597833,19.1989558632071,-23.1708384197172
11.4072108349029,-11.2954079146889,-22.465967898176,7.37756918634707,-24.8619100191452,-36.9157376635871,-12.161896168224,72.678737590308,-34.1497861588468,19.0713628519799,-22.9623423304588
12.5800277382354,-11.3977070063871,-22.3923423777755,7.22603455938239,-25.2475029613615,-36.3995449029599,-12.1952442741093,73.5251603592215,-33.2695630360769,18.9020495081756,-22.7337879566351
13.7722441230479,-11.5087490760324,-22.3082245515254,7.06426790815934,-25.6266458705971,-35.8493833869933,-12.2131245012948,74.4381913095771,-32.3831412369665,18.6915213839528,-22.4883784465895
14.9760609915223,-11.6284153428699,-22.2129424267411,6.89192219088823,-25.9966085265532,-35.2650006397043,-12.2137632417204,75.4161475736005,-31.4916530630383,18.4408777319721,-22.2291022968452
16.1834304174133,-11.7565122691314,-22.105868302541,6.70867315669385,-26.354711097472,-34.6463430105202,-12.1954702944873,76.4567388522193,-30.5961668935859,18.15177123986,-21.9585781469835
17.3861470149951,-11.892771062678,-21.9864290009673,6.51422740850769,-26.6983677682267,-33.9935492577974,-12.1566627738764,77.557071544766,-29.6977388505885,17.8263676833053,-21.6789388174623
18.575943296341,-12.0368480008633,-21.8541157774131,6.30833075058242,-27.0251276825607,-33.306940202192,-12.0958874372432,78.7136565179537,-28.7974661916786,17.4673056249089,-21.3917579541002
19.7445868866449,-12.1883256222944,-21.7084937453977,6.09077657948598,-27.3327119240805,-32.5870051446386,-12.0118411202636,79.9224216245171,-27.896539146264,17.0776552181243,-21.0980190747791
20.8839776577425,-12.3467148146921,-21.549210665116,5.86141408060957,-27.6190455217683,-31.8343858672613,-11.9033890462612,81.1787305807946,-26.9962879440414,16.6608743477676,-20.7981239016298
21.9862429189117,-12.5114578096593,-21.3760049624651,5.6201560046219,-27.8822837691528,-31.0498591021917,-11.7695808472394,82.4774101614382,-26.0982219842647,16.2207598134277,-20.49193475971
23.0438288916616,-12.681932081604,-21.1887128593699,5.36698581526734,-28.1208324658674,-30.234318357294,-11.6096641938668,83.8127877909923,-25.2040584530257,15.7613910915235,-20.1788445425698
24.0495868025158,-12.857455136976,-20.9872745018177,5.10196401900513,-28.3333620005386,-29.3887559317167,-11.423095981059,85.1787414462328,-24.3157382143133,15.2870644417302,-19.8578671999873
24.996852060336,-13.0372901682975,-20.7717389682238,4.82523350805509,-28.5188154709855,-28.5142458548379,-11.2095510595352,86.5687633071317,-23.435427486103,14.8022157824847,-19.527741756924
25.8795151446452,-13.2206525329105,-20.5422680308972,4.5370237728909,-28.6764112642582,-27.6119283622262,-10.9689285457857,87.9760378294289,-22.5655046622642,14.3113318338301,-19.18704336973
26.692083018549,-13.4067169977173,-20.2991385324208,4.23765387031941,-28.8056406879303,-26.6829963964823,-10.7013557808454,89.3935339167653,-21.7085326180333,13.8188504224054,-18.8342956931737
27.4297300924119,-13.5946256675867,-20.0427432321248,3.92753407003412,-28.9062613535481,-25.7286844949068,-10.4071900320801,90.8141097331627,-20.8672178673208,13.3290523858105,-18.4680796858937
28.0883379992816,-13.783496486797,-19.7735899802125,3.60716614394942,-28.978287060515,-24.7502603042183,-10.0870180313453,92.2306275285558,-20.0443589244765,12.8459489937891,-18.087134776637
28.6645236960153,-13.9724321728968,-19.4922990901227,3.2771423044221,-29.0219749133458,-23.7490188496419,-9.74165341566207,93.6360747773666,-19.2427870467709,12.3731700473824,-17.6904489896987
29.1556556700557,-14.1605294159875,-19.1995988018562,2.93814283551704,-29.0378103357814,-22.7262795821493,-9.37213209148595,95.0236870807841,-18.4653030838376,11.9138586845753,-17.277335196599
29.5598583049917,-14.3468881577802,-18.89631875828,2.59093249310071,-29.0264905395407,-21.6833861292877,-8.97970549354413,96.3870677666497,-17.7146143509467,11.4705792826687,-16.847491164949
29.8760047319128,-14.5306207543496,-18.583381452361,2.23635577367706,-28.9889068849526,-20.6217085772741,-8.56583166759577,97.7202990049658,-16.9932752377087,11.045244605445,-16.4010415787441
30.1036987610854,-14.7108608228334,-18.2617916466087,1.8753311685715,-28.926126456005,-19.5426480130902,-8.13216408618194,99.0180395595504,-16.3036346887464,10.6390674656062,-15.9385607833072
30.2432467422024,-14.8867715756509,-17.9326238172326,1.5088445282585,-28.8393730796535,-18.4476429582188,-7.68053811555792,100.275604987333,-15.6477928374462,10.2525407022553,-15.461075718367
30.2956204337084,-15.057553458868,-17.5970077329559,1.13794165737611,-28.7300079555053,-17.3381772390091,-7.21295508996036,101.489027101783,-15.0275680692441,9.88544732615774,-14.9700493554278
30.2624121647961,-15.2224509360512,-17.2561123380724,0.763720240587306,-28.5995100250494,-16.2157887725423,-6.73156400857686,102.655090721837,-14.4444747738172,9.53690045989726,-14.4673459189437
30.1457837401533,-15.3807582931356,-16.9111281677877,0.387321164920964,-28.4494561954813,-15.0820787065328,-6.23864094246697,103.771346999325,-13.8997111329267,9.20541045285118,-13.9551801758832
29.9484106605367,-15.5318243781872,-16.563248580318,0.00991926459879214,-28.2815015409985,-13.9387203365338,-5.73656631883263,104.836103833893,-13.3941555726925,8.88897454521627,-13.4360540223242
29.6734233057986,-15.6750562280568,-16.2136501440741,-0.367286518191444,-28.097359632046,-12.787467232479,-5.22780033814204,105.848394952735,-12.9283700489521,8.58518291423142,-12.9126843594033
29.3243467464987,-15.809921570681,-15.8634725663102,-0.743083579483305,-27.8987831820427,-11.6301600413214,-4.7148568730103,106.80793009647,-12.5026081587693,8.29133401896181,-12.3879267266765
28.9050408128545,-15.9359502275853,-15.5137985873145,-1.11625672697823,-27.6875452418361,-10.4687314935375,-4.20027628647484,107.715029389111,-12.1168261586429,8.00455194402978,-11.8646992733865
28.419641954902,-16.0527344755394,-15.1656342894084,-1.48559988016742,-27.4654212086397,-9.30520922182744,-3.68659767900472,108.570545383502,-11.770695259223,7.72189890279627,-11.3459113638645
27.872508277267,-16.1599284584576,-14.8198902834785,-1.84992835849281,-27.2341719430927,-8.14171608953857,-3.1763311211474,109.375776483072,-11.4636139825365,7.44047708041893,-10.834400452931
27.268168930657,-16.2572467710938,-14.4773642383667,-2.20809166737978,-26.9955282973075,-6.98046781539245,-2.67193044883735,110.132375471367,-11.1947198401803,7.15751540762408,-10.3328799117896
26.611278797722,-16.3444623654438,-14.1387252097975,-2.55898663519984,-26.7511773435812,-5.82376776381195,-2.17576718577206,110.842256758628,-10.9629000551415,6.87043846963099,-9.8438993585308
25.9065791337875,-16.4214039572695,-13.8045002054465,-2.90157070035621,-26.502750560733,-4.67399884089291,-1.69010610773822,111.507505707685,-10.7668014537247,6.57691638668724,-9.36981788864578
25.158864526056,-16.4879531301181,-13.4750633922915,-3.23487509922077,-26.2518141864718,-3.53361249235201,-1.21708288344989,112.130293055927,-10.6048399704592,6.27489599600147,-8.91278954389273
24.3729562329686,-16.5440413447917,-13.1506283122139,-3.55801766108832,-25.9998618769267,-2.40511484496116,-0.758684132820884,112.712797025755,-10.4752104349187,5.96261491694637,-8.47475951163172
23.553681674305,-16.5896470623972,-12.8312434203236,-3.87021487598108,-25.7483097232645,-1.29105007302122,-0.316730156447211,113.257135226856,-10.375897452088,5.63860104942372,-8.05746897100046
22.7058595780089,-16.6247931786348,-12.5167911937074,-4.17079286899004,-25.4984935624288,-0.193981110998994,0.10713947819103,113.765307916776,-10.3046882524327,5.3016607309202,-7.66246619391774
21.8342900662604,-16.6495449451724,-12.2069909726702,-4.45919689663051,-25.251668396418,0.883532123654882,0.511477358036792,114.239153623755,-10.2591883709094,4.95085915675919,-7.29112141014317
20.9437487932122,-16.6640085195323,-11.9014055925401,-4.73499898336706,-25.0090096170432,1.93895678195906,0.895036560234842,114.680317571656,-10.2368409069172,4.58549674948191,-6.94464297670305
20.0389841389284,-16.668330236685,-11.5994517465185,-4.99790334733276,-24.771615632758,2.96981312730687,1.25677585734609,115.090232803246,-10.2349499213639,4.20508496826003,-6.62409250475994
19.1247164228903,-16.6626966339207,-11.3004138953254,-5.24774932682834,-24.5405114198555,3.97370220790847,1.59586180292712,115.470113395052,-10.2507082642218,3.80932461109157,-6.33039681699366
18.205638125332,-16.6473351893472,-11.0034614137043,-5.48451161048523,-24.3166524791385,4.94833470222697,1.91166776823809,115.82095871314,-10.2812298257003,3.39808900232075,-6.06435501233459
17.2864141892858,-16.6225156597839,-10.7076685408964,-5.70829768714221,-24.100928675363,5.89156038619599,2.20377006274204,116.143567292973,-10.3235858897107,2.9714136108592,-5.82663953757718
16.3716816078632,-16.5885518322056,-10.4120365840785,-5.91934255605184,-23.8941674703764,6.80139757236841,2.47194133445166,116.438558654727,-10.374844957995,2.52949271402285,-5.6177909270448
15.4660476603499,-16.5458034414829,-10.1155177197873,-6.11800085591413,-23.6971361269261,7.67606177986472,2.71614150421284,116.706401199142,-10.4321151311583,2.0726828620704,-5.43820661338919
14.5740863195308,-16.494677965927,-9.81703966875257,-6.30473666164997,-23.5105425501793,8.51399283644057,2.93650653092157,116.947444271464,-10.4925879101261,1.60151222252006,-5.28812480745165
13.7003324742407,-16.4356319997584,-9.51553050039115,-6.4801112519914,-23.3350345410557,9.31387961217512,3.13333533101746,117.161952524518,-10.5535821409398,1.11669440815808,-5.16760485932797
12.8492736470354,-16.3691719198013,-9.20994284837656,-6.64476917619954,-23.1711973560308,10.0746816336812,3.30707519226173,117.350140838288,-10.6125867669166,0.619145069545794,-5.07650577446078
12.0253387755173,-16.2958536074872,-8.8992768646407,-6.7994229565039,-23.0195495979388,10.795646904517,3.45830603355614,117.512208237863,-10.6673010598769,0.109999308801656,-5.01446470016114
11.2328832927063,-16.2162810494353,-8.58260128867548,-6.94483676104196,-22.8805375929948,11.4763253444022,3.58772386870734,117.648369470961,-10.7156710663629,-0.409372177878226,-4.98087723932908
10.4761691058399,-16.1311037126331,-8.25907206476184,-7.08180937311623,-22.7545285316784,12.1165773579248,3.69612383244223,117.758883141581,-10.7559211227555,-0.937350393328513,-4.97488140376276
9.75933706748958,-16.0410126644851,-7.92794801327659,-7.21115677122269,-22.6418027610225,12.7165771596769,3.78438312603263,117.844075534374,-10.786579453685,-1.47206090625737,-4.99534689617219
9.08636815478382,-15.9467354767265,-7.58860315801513,-7.33369462875989,-22.5425457103002,13.2768106161659,3.85344424363689,117.90435949675,-10.806497047775,-2.01137427294193,-5.04087120069315
8.46102797697819,-15.8490300148122,-7.24053542739543,-7.45022105125989,-22.4568400021749,13.7980675087489,3.90429885096049,117.940247968757,-10.8148591868999,-2.55291567286732,-5.10978364803425
7.88678788210157,-15.748677272822,-6.88337158415381,-7.56149989570095,-22.384658334428,14.2814282744079,3.93797269826092,117.952361965125,-10.8111891947052,-3.09408490678502,-5.20015819228831
7.36671577741343,-15.6464734638479,-6.51686839967573,-7.66824505209599,-22.3258577064177,14.7282454482133,3.95551194368189,117.941433022336,-10.7953441852845,-3.6320872049013,-5.3098351160973
6.90333232069062,-15.5432216062581,-6.1409102705317,-7.77110609244369,-22.2801755112796,15.1401202145976,3.95797122242072,117.90830032864,-10.7675028476317,-4.163974442657,-5.43645133532063
6.49843513130321,-15.4397228496763,-5.7555036512321,-7.87065568917278,-22.2472279252712,15.5188746573569,3.94640371307735,117.853902956248,-10.7281455980278,-4.68669546042271,-5.57747847535791
6.1529060520083,-15.336767764899,-5.36076881311145,-7.96737916845144,-22.2265109042011,15.8665204515328,3.92185332451557,117.779267805622,-10.678027763324,-5.19715336256106,-5.73026747502003
5.86653254769505,-15.2351277918238,-4.95692951599084,-8.06166649361358,-22.2174039478846,16.1852248479612,3.88534896159291,117.685494036037,-10.6181468071489,-5.69226703795988,-5.89209814221854
5.63788805961648,-15.1355470105235,-4.54430121003155,-8.15380687373542,-22.2191766263329,16.4772748722003,3.83790064861814,117.57373487491,-10.5497049501003,-6.16903374883327,-6.06023183614604
5.4643181740721,-15.0387343774403,-4.12327839751851,-8.24398607249138,-22.2309976937934,16.745040710685,3.7804971366039,117.445177757101,-10.4740688193058,-6.62458948589061,-6.23196529052259
5.34206233427591,-14.9453565492385,-3.69432179150127,-8.33228637093977,-22.2519464728833,16.9909392911217,3.71410453478941,117.301023745767,-10.3927279379852,-7.05626388622566,-6.40468353233268
5.26650633246958,-14.8560313968228,-3.25794589942633,-8.41868903254195,-22.2810260928018,17.2173990660116,3.63966550416532,117.142467144289,-10.3072538880979,-7.46162686080442,-6.5759098962736
5.23252263407957,-14.7713222877889,-2.8147076135614,-8.50307903987558,-22.3171781234928,17.4268269563471,3.55809862026242,116.970676144955,-10.219261836,-7.83852467227888,-6.74335128780725
5.23483191334847,-14.6917331854155,-2.36519629483559,-8.58525182335832,-22.3592981577827,17.6215782963463,3.47029763249055,116.78677528577,-10.1303758256625,-8.18510399253032,-6.90493710061584
5.2683203159794,-14.6177045767443,-1.91002570115924,-8.66492168177646,-22.4062519423686,17.8039304482923,3.37713049382857,116.591830400015,-10.0421988670823,-8.49982336445543,-7.05885052932625
5.32826898441691,-14.54961020421,-1.44982795431604,-8.74173159834651,-22.4568917289064,17.9760605504087,3.27943818089568,116.386836635556,-9.95628843902247,-8.78145239062767,-7.20355140856754
5.41048201726138,-14.4877545395731,-0.985249576688202,-8.81526417715872,-22.5100725906016,18.1400276416887,3.17803344203016,116.172709985392,-9.87413763437116,-9.02905977956954,-7.33779012544782
5.51132358563099,-14.432370911098,-0.51694947076507,-8.8850534539212,-22.5646685118918,18.2977591924083,3.07369967785225,115.950282609174,-9.79716183227208,-9.2419920298285,-7.46061256696589
5.6276884240841,-14.3836201788615,-0.0455985720107674,-8.95059736345841,-22.6195881000532,18.4510418715445,2.96719016754734,115.720302049974,-9.72669049646017,-9.41984498381567,-7.57135645236389
5.75693294089218,-14.3415898499369,0.428119207772241,-9.01137066893407,-22.6737897883734,18.6015162146801,2.85922781327351,115.483434280078,-9.66396347569431,-9.56243072421368,-7.66963974170138
5.89679050843732,-14.30629353418,0.90350520528513,-9.06683817238167,-22.7262964068298,18.7506747268395,2.75050550066828,115.240270358121,-9.61013101596569,-9.6697423180686,-7.75534208773238
6.04528798319986,-14.2776706603054,1.37984389571742,-9.11646803400413,-22.776208992755,18.8998628656878,2.641687079225,114.991336353625,-9.56625658354909,-9.7419187533475,-7.82858049416991
6.20067381054117,-14.2555863975222,1.85640095158109,-9.15974503107363,-22.8227197020049,19.0502822969302,2.53340886186283,114.737106095373,-9.5333215452202,-9.77921209900175,-7.88968045187489
6.36136250838692,-14.2398317571589,2.33242195399224,-9.19618358588701,-22.8651236605449,19.2029957920225,2.42628143777045,114.478016226466,-9.51223075870495,-9.7819585171585,-7.9391438497869
6.52589629907679,-14.2301238807543,2.80713219208148,-9.22534038264854,-22.9028295683389,19.3589331512128,2.32089149988713,114.214482998333,-9.50381819100739,-9.75055433728696,-7.97761491923426
6.69292209207313,-14.2261065572649,3.2797379094159,-9.24682637362978,-22.9353688371288,19.5188975862554,2.21780332553217,113.946920202373,-9.50885179851711,-9.68543802127807,-8.00584539508095
6.86118064140112,-14.2273510527827,3.74942925597867,-9.26031795004046,-22.962403019841,19.6835720831599,2.11755953153447,113.675757615098,-9.52803705906497,-9.58707852743813,-8.02465998422762
7.02950420045038,-14.2333573794604,4.21538509039023,-9.26556703057846,-22.9837292795796,19.8535253752064,2.02068075992744,113.401459317266,-9.56201872671007,-9.4559703158931,-8.03492312934584
7.19681909096205,-14.2435561729922,4.67677965810659,-9.26240980548667,-22.9992836527409,20.0292172787462,1.92766403120485,113.124541240597,-9.61138056753129,-9.29263501154304,-8.03750794664735
7.36215006257749,-14.2573113871231,5.1327910518487,-9.25077386688543,-23.0091418809441,20.2110032696958,1.83897961727097,112.845587302572,-9.67664301228874,-9.09762953423,-8.03326810458712
7.52462397009331,-14.2739240469971,5.58261124357526,-9.23068345802713,-23.0135176157199,20.399138297959,1.75506642354106,112.565263517371,-9.75825881856423,-8.87156030102991,-8.02301329876993
7.68347101418969,-14.2926373281085,6.02545736842794,-9.20226258852572,-23.012757834989,20.5937799406471,1.67632601721936,112.284329523722,-9.85660696997035,-8.61510289292001,-8.00748886736318
7.83802249619515,-14.3126432396768,6.46058385156524,-9.16573579448881,-23.0073353508213,20.7949910727559,1.60311557977317,112.003647047233,-9.97198516067377,-8.32902636147108,-7.98735997811121
7.98770467811342,-14.3330911831954,6.88729491336131,-9.12142637581661,-22.9978383358199,21.0027422762913,1.53574017508997,111.724184908875,-10.1046013272017,-8.01422114402687,-7.96320069560199
8.13202888700811,-14.3530986213311,7.30495697472764,-9.06975201918996,-22.984956853807,21.2169142125519,1.47444479697897,111.447020294468,-10.2545647948811,-7.67172937396134,-7.93548809497967
8.27057844292563,-14.3717640256935,7.71301050552612,-9.01121781164048,-22.9694664522419,21.4373001556204,1.41940669222104,111.173336109558,-10.4218776932908,-7.30277623120614,-7.9046014177972
8.40299331487318,-14.3881821747482,8.11098089960256,-8.94640675947735,-22.9522089625481,21.6636088431779,1.37072845906463,110.904414363757,-10.606427353287,-6.90880088928159,-7.87082606675065
8.52895361777539,-14.4014617447122,8.49848800731122,-8.87596804506409,-22.9340707672955,21.8954677552871,1.3284324043224,110.641625661119,-10.8079804207704,-6.49148558333956,-7.83436201027827
