Finger Velocity,Scap_X,Scap_Y,Scap_Z,Shoulder horiz abd-adduction,Shoulder flexion-extension,Shoulder internal-external rotation,elbow flexion-extension,forearm pronation-supination,wrist flexion-extension,wrist radial-ulnar deviation
0.857915451409388,-10.3151316395388,-16.7628960676987,3.49705325507463,-17.288221979548,-42.5626922377876,-9.29822882818506,58.5499416413817,-18.0563240942225,-10.9527643454439,-3.12113253804674
1.19176806010124,-10.3153256920117,-16.7646062056481,3.47573969993503,-17.6201991459321,-42.4216240967264,-9.52325225927951,58.7861266267683,-17.6139025138837,-9.45343112513688,-4.57697870470683
1.76701995158204,-10.3203683539475,-16.7637158568575,3.45173016369322,-17.9781690444144,-42.2546726722534,-9.76536555716561,59.0754155763949,-17.1335897048379,-7.98141230662814,-5.99338862333815
2.49042969826989,-10.3307230018002,-16.7595621224581,3.42496740178121,-18.3610601307975,-42.059215570728,-10.0237772962796,59.4217134094864,-16.6144980138297,-6.56106811071393,-7.34614481020486
3.32523413545253,-10.3468157324649,-16.7514364878445,3.39538828063642,-18.7673532323194,-41.8326238696717,-10.2973732576574,59.8286019913166,-16.0558222874379,-5.21219004400217,-8.6159008735887
4.2557394010683,-10.3690259417037,-16.738591139022,3.3629171811928,-19.1950753501181,-41.5723004255169,-10.5847104295581,60.2992924208483,-15.4568383466955,-3.94980007455934,-9.78837849716473
5.27281923250823,-10.3976773401198,-16.7202462648551,3.32745905062748,-19.641805032939,-41.2757209613707,-10.8840198570592,60.8365843536556,-14.8169081178911,-2.78433813099693,-10.8541610005394
6.36925076554042,-10.4330296527206,-16.6955981638092,3.28889238411845,-20.1046904201615,-40.9404769842946,-11.1932191970304,61.4428317933353,-14.135493573136,-1.72211089906615,-11.8082093836316
7.5380687289812,-10.4752712401874,-16.6638279471524,3.24706244589205,-20.5804805724951,-40.5643194054221,-11.5099354290988,62.1199141569815,-13.4121813146381,-0.765880600963819,-12.6492217461971
8.77192711814194,-10.5245128606746,-16.6241106226856,3.20177505500467,-21.0655701209703,-40.1452015933627,-11.8315376778541,62.8692108967471,-12.6467191288987,0.0845039452756789,-13.3789342344042
10.0628477979272,-10.5807827618008,-16.5756243496873,3.15279126673798,-21.5560566033495,-39.6813205066035,-12.1551795470889,63.6915775992015,-11.8390651482821,0.831501759492845,-14.0014327613748
11.4021400999945,-10.6440232564811,-16.5175596713919,3.0998232742107,-22.0478091658962,-39.1711545470311,-12.4778497990607,64.5873213446626,-10.9894493976962,1.47933928595149,-14.5225177647472
12.7804068995747,-10.7140888964126,-16.4491285530531,3.04253183392078,-22.5365466398859,-38.6134968660498,-12.7964296831922,65.5561732431896,-10.0984464841887,2.03355259800104,-14.9491432308283
14.1876002644834,-10.7907463146827,-16.3695730818223,2.98052548189343,-23.0179224144171,-38.0074830333154,-13.1077547803318,66.597256513003,-9.16705702666154,2.50061440544624,-15.2889370282617
15.6131086783251,-10.8736757631062,-16.2781737200293,2.91336175655986,-23.4876130783819,-37.3526122294642,-13.4086789264462,67.7090492461655,-8.19679416318345,2.88763888148653,-15.5498013481947
17.0458659251926,-10.962474318656,-16.174257043933,2.84055058554452,-23.9414075451303,-36.6487614255721,-13.6961376510692,68.8893420957857,-7.18977019011285,3.20215274094983,-15.7395881097683
18.474475382548,-11.0566606769135,-16.0572029414915,2.76155992878943,-24.3752933332677,-35.896192337837,-13.967208630185,70.1351924605652,-6.14877719822455,3.45191942933182,-15.8658428864642
19.8873451987276,-11.1556813928353,-15.926451281882,2.67582369795702,-24.7855368585007,-35.095551268769,-14.2191669010504,71.4428782394819,-5.07735463640723,3.64480347284263,-15.9356108950352
21.2728306808046,-11.2589183770369,-15.7815081042308,2.58275188898149,-25.1687549738307,-34.247862238207,-14.4495329841898,72.8078557460681,-3.97983624195199,3.78866316190143,-15.9552989768618
22.619380657598,-11.3656974159219,-15.6219514000584,2.48174277069082,-25.5219755399038,-33.3545140444276,-14.6561125593702,74.2247277325372,-2.86136891951044,3.89126133736447,-15.9305878413532
23.9156848341044,-11.4752974611452,-15.4474365774475,2.37219686960562,-25.8426854561323,-32.4172420626187,-14.8370268944005,75.6872284667682,-1.72789708838865,3.96018593054149,-15.8663890082796
25.1508193278559,-11.5869604306488,-15.2577016872763,2.25353238432636,-26.1288652668857,-31.438105683159,-14.9907337742797,77.1882331975764,-0.586107833984538,4.00277400534733,-15.7668409228539
26.3143877310076,-11.6999012802122,-15.0525724574931,2.12520156316212,-26.3790101127871,-30.4194623224036,-15.1160391816531,78.7197989186154,0.556665148584187,4.02603529154909,-15.6353386973714
27.3966552033794,-11.813318138174,-14.8319671223823,1.98670750159186,-26.5921373798739,-29.3639389104732,-15.2121004096817,80.2732419461455,1.69257754884838,4.03657347226351,-15.4745919050168
28.3886732856282,-11.9264023394137,-14.5959009612535,1.83762077591401,-26.7677818802672,-28.2744016759178,-15.2784216224313,81.8392554274368,2.813445559862,4.04050567059765,-15.2867048408092
29.2823933343914,-12.0383482376427,-14.3444903903599,1.67759533254228,-26.9059797611886,-27.153924909449,-15.3148430986898,83.4080666286735,3.91094397577482,4.04338253592171,-15.0732736834587
30.0707667238765,-12.1483627097409,-14.0779563959725,1.50638309626116,-27.0072425799919,-26.0057592111589,-15.3215254984815,84.9696300347482,4.97682048710513,4.05011290395249,-14.8354950374215
30.747830229157,-12.2556742909194,-13.7966270614178,1.32384683444757,-27.0725231047127,-24.8332995339329,-15.2989304832604,86.5138484069653,6.00311384813179,4.06489802013537,-14.5742803963778
31.308775301557,-12.3595418973192,-13.5009389242441,1.12997090000646,-27.103174414923,-23.6400531659242,-15.2477989101986,88.0308105482189,6.98236334925982,4.09118062395445,-14.2903711570428
31.7500002608553,-12.4592631028126,-13.1914368947228,0.924869554455129,-27.1009038137072,-22.4296076815981,-15.1691276241538,89.5110321552955,7.90779807273578,4.13161373584497,-13.9844489750104
32.0691447566388,-12.5541819346922,-12.8687724692029,0.708792633649491,-27.0677229583299,-21.2055988543695,-15.0641456162537,90.9456851971861,8.77349650968035,4.18805282639621,-13.6572365696353
32.265106185554,-12.6436961367577,-12.5336999820681,0.482128365874806,-27.0058955113168,-19.9716785649731,-14.9342900444522,92.3268019211584,9.57450988985914,4.26157333264877,-13.3095846297711
32.3380380857708,-12.72726382315,-12.1870706611618,0.245403197962685,-26.9178835243917,-18.7314828442639,-14.7811823579084,93.6474417555242,10.3069455977234,4.35251343868579,-12.9425412982149
32.289330858053,-12.8044094201061,-11.8298242883583,-0.000721460005245534,-26.8062936966114,-17.4886003351014,-14.6066045614399,94.9018127018928,10.9680099407815,4.46053992031423,-12.5574018236399
32.1215754779922,-12.8747287713121,-11.462978328044,-0.255455593613872,-26.6738245878145,-16.2465416176054,-14.4124755112786,96.0853427804132,11.5560120262939,4.58473294606015,-12.1557373036456
31.8385111601572,-12.9378932698262,-11.0876144789946,-0.517889990022913,-26.5232158095706,-15.0087099839079,-14.2008270510916,97.1947011495624,12.0703324450631,4.72368428961289,-11.7394028790044
31.4449582066169,-12.9936528803982,-10.7048627276539,-0.787008544355369,-26.3572001486383,-13.778374342813,-13.9737797774451,98.2277721648592,12.5113618273084,4.8756026301036,-11.3105271178565
30.9467375145749,-13.0418379345531,-10.3158831228686,-1.06170321755077,-26.1784594920513,-12.5586449583159,-13.7335182685178,99.1835885017743,12.8804151669534,5.03841956179318,-10.871485486555
30.3505784265165,-13.0823596170268,-9.92184564002371,-1.34079128274028,-25.9895853074137,-11.3524526673784,-13.4822657182661,100.062231355157,13.1796281744351,5.20989054137071,-10.4248616075509
29.6640167777875,-13.1152091110997,-9.52390864125251,-1.62303438320385,-25.7930442814639,-10.1625320867865,-13.2222580751151,100.86470662271,13.4118418860434,5.38768611383624,-9.97340037675484
28.8952851281332,-13.1404554247496,-9.12319655537815,-1.90715882914135,-25.5911495403148,-8.99140912319741,-12.9557179579972,101.592806004321,13.5804814008231,5.56947017183028,-9.51995694909956
28.0531972532743,-13.1582419721982,-8.72077748791732,-2.19187649641975,-25.3860376799084,-7.84139286592879,-12.6848287808523,102.248961304434,13.6894339996905,5.75296350206785,-9.0674451701562
27.1470290184546,-13.1687820304519,-8.31764151699334,-2.47590566209389,-25.1796516403267,-6.71457169672964,-12.4117096428166,102.836099135771,13.7429310870544,5.93599227061868,-8.61878835162831
26.186397756746,-13.1723532243917,-7.91468042238201,-2.75799111652375,-24.9737292741256,-5.61281322941589,-12.1383916336526,103.357501894279,13.7454374512158,6.11652227690819,-8.17687448798743
25.1811422294105,-13.1692912169077,-7.51266953117911,-3.03692292707048,-24.769797290929,-4.53776752274301,-11.8667962604365,103.816679469699,13.7015503422567,6.29268071059511,-7.74451719447261
24.1412051520977,-13.1599827950367,-7.11225226239477,-3.31155329420609,-24.5691701072061,-3.49087290333703,-11.5987167066576,104.217254791546,13.6159098868382,6.46276775634577,-7.32442288264715
23.0765201265032,-13.1448585511908,-6.71392783615441,-3.58081104126843,-24.372952995269,-2.4733636921819,-11.335802568561,104.562865070292,13.4931214598693,6.62526071245705,-6.91916402529494
21.9969046182994,-13.1243853595196,-6.31804249166205,-3.84371341180035,-24.1820488233975,-1.48627914393462,-11.079548574227,104.85707953362,13.3376898678623,6.77881335776633,-6.53115782810519
20.9119603626877,-13.0990588375299,-5.92478443161136,-4.0993749975172,-23.997167627203,-0.530472972623269,-10.8312876031034,105.103333603331,13.1539646125401,6.92225318068587,-6.16264923139201
19.8309822505535,-13.0693959603651,-5.5341825783331,-4.34701376398806,-23.8188382570141,0.393377064980157,-10.5921881194255,105.304878806813,12.9460951209306,7.0545788393875,-5.81569690206208
18.7628763407685,-13.0359279636532,-5.14610909353708,-4.58595426894127,-23.6474213965969,1.28475993811016,-10.3632559295561,105.464747246547,12.7179946495514,7.1749598987184,-5.49216072771379
17.7160871472815,-12.9991936387056,-4.76028549107814,-4.81562828037877,-23.4831233272567,2.14332274287989,-10.1453399743259,105.585729136978,12.4733115714871,7.28274049500173,-5.19368928319768
16.6985337568215,-12.959733097924,-4.37629207494403,-5.03557309742923,-23.3260099052874,2.96886288913765,-9.93914168029681,105.670361739573,12.215406894161,7.37744809257802,-4.92170581645363
15.7175536501007,-12.9180820704605,-3.99358037032553,-5.24542794797052,-23.1760203234008,3.76132112021894,-9.74522723437208,105.720927966016,11.9473370805962,7.45880790912669,-4.67739151799851
14.779852358686,-12.8747667747633,-3.61148818149052,-5.44492887737982,-23.0329803354637,4.52077533143815,-9.5640420249076,105.73946295433,11.6718415059237,7.52676293287668,-4.46166521278683
13.8914563715123,-12.8302993987954,-3.22925689660916,-5.63390255209669,-22.8966147379284,5.2474350943849,-9.39592641179633,105.727767029259,11.3913341278029,7.58149878289873,-4.27515914162656
13.0576661645512,-12.7851741953059,-2.84605065490283,-5.81225937890852,-22.7665590196291,5.94163675000074,-9.24113195565513,105.687423614906,11.1078991457908,7.6234720149891,-4.11819115805946
12.2830061180682,-12.7398641686541,-2.46097698383781,-5.97998628493792,-22.6423702077798,6.60383889601853,-9.09983726425141,105.61982085568,10.8232905436846,7.65343988072269,-3.99073440659428
11.5711687595551,-12.6948182974521,-2.07310849488183,-6.13713942396441,-22.5235370378393,7.23461805702,-8.97216270025344,105.526175898599,10.5389354447397,7.67248903786672,-3.89238629320936
10.9249526147717,-12.6504592139194,-1.68150519507193,-6.2838369923794,-22.4094896414908,7.83466428802662,-8.85818331810825,105.407560971653,10.2559411819487,7.68206033397475,-3.82233921462488
10.3461962261338,-12.6071812552193,-1.28523693702961,-6.42025226902547,-22.2996089716882,8.40477643420987,-8.75793953958892,105.26493054403,9.9751059280318,7.68396659968386,-3.77935598616761
9.83571546570783,-12.5653488153013,-0.883405504138631,-6.54660694057003,-22.1932361725574,8.94585676200564,-8.67144522919776,105.099148973844,9.69693267439419,7.68040043615991,-3.76175312977495
9.39325627266244,-12.5252949494873,-0.475165819250586,-6.66316473467869,-22.0896820707337,9.45890469719653,-8.59869298837898,104.91101814224,9.42164631544654,7.67392927139159,-3.76739511862335
9.01747868148606,-12.4873202056175,-0.0597457771251931,-6.77022535552618,-21.9882369285579,9.94500945075917,-8.53965664467271,104.701304641657,9.14921358654283,7.66747548018556,-3.79370231452237
8.70598829112697,-12.4516916660734,0.363535770103064,-6.86811869803996,-21.8881805661799,10.4053413744876,-8.4942910632968,104.470766131603,8.8793656028801,7.66428010117939,-3.8376746838437
8.45542647076415,-12.4186421825512,0.795253301835562,-6.95719930310285,-21.7887929298209,10.8411419578501,-8.4625295541213,104.220176502135,8.61162272955269,7.66784963071171,-3.89593246019698
8.26162068415567,-12.3883697744189,1.23586156050185,-7.03784100236099,-21.6893651531185,11.2537124528059,-8.44427928497159,103.950349499781,8.3453214707019,7.68188649291582,-3.96477379666001
8.1197838520405,-12.3610371511347,1.68568541665075,-7.11043169177233,-21.5892111181797,11.6444011923764,-8.43941523354507,103.662160477482,8.07964301044913,7.71020499152088,-4.04024822564574
8.02474086756085,-12.3367713204259,2.14491286883173,-7.17536817360372,-21.487679461706,12.0145897435009,-8.44777330189058,103.356565934335,7.8136429917341,7.75663569957595,-4.11824357330501
7.97115513369896,-12.3156632607961,2.61359128672492,-7.23305102235871,-21.3841658890671,12.3656780940824,-8.46914326674635,103.034620520702,7.54628209327061,7.82492217185068,-4.19458302279857
7.95372988377895,-12.2977676611222,3.09162691220016,-7.28387946655023,-21.2781255724907,12.6990691157308,-8.50326223453846,102.697491206173,7.27645694854585,7.91861443641456,-4.26512840831717
7.96736670040533,-12.2831027488819,3.57878753063983,-7.32824633647946,-21.1690853401073,13.0161525776076,-8.54980920674478,102.346468340485,7.00303092118467,8.04096387902554,-4.32588558885449
8.00727379086908,-12.2716502386569,4.07470811206366,-7.36653319487877,-21.0566553171491,13.3182890246659,-8.60840125194043,101.982973373145,6.72486420144992,8.19482390034717,-4.37310786176712
8.06902584927911,-12.2633554418554,4.57889911240384,-7.3991058151436,-20.9405396480875,13.6067938763143,-8.67859165262325,101.608563031078,6.44084263893006,8.38256018276422,-4.40339374803083
8.1485836421033,-12.2581275941693,5.09075703949697,-7.42631017707935,-20.8205458964619,13.8829221394149,-8.75987027161406,101.22492978684,6.14990470747235,8.60597365769927,-4.41377600582091
8.24228429191986,-12.2558404758691,5.60957683443116,-7.44846910994197,-20.6965926910317,14.1478541519542,-8.85166626854817,100.833898491339,5.85106603777168,8.86623842632384,-4.40179929317016
8.3468132435801,-12.2563334119266,6.13456559116791,-7.46587964547956,-20.5687151826394,14.4026827759806,-8.95335317994566,100.437419106028,5.54344106807741,9.16385605794973,-4.36558440689868
8.45916717475057,-12.2594127380736,6.66485712671836,-7.47881107391553,-20.4370679167908,14.6484024411557,-9.06425624521057,100.037555558767,5.22626154787836,9.49862695107473,-4.30387741386446
8.57661469127448,-12.2648538070659,7.19952691486553,-7.48750363876458,-20.3019248182271,14.8859004063156,-9.18366171874221,99.636470863915,4.89889184031568,9.86963884270003,-4.21608225076331
8.69665925137472,-12.2724035926404,7.73760690536994,-7.49216776546081,-20.1636761131108,15.1159505580163,-9.31082777542357,99.2364087805247,4.56084114107438,10.2752721196362,-4.10227553316638
8.81700678011846,-12.2817839319515,8.2780997688423,-7.49298369266922,-20.0228221609848,15.339210000408,-9.44499651868921,98.8396724175783,4.21177281745881,10.7132213235376,-3.9632024485237
8.93553899746467,-12.2926954322741,8.81999214378246,-7.49010136521867,-19.879964314991,15.5562186039292,-9.58540655141215,98.448600315443,3.85151107042459,11.1805321100749,-3.800252799822
9.05029256282108,-12.3048220529504,9.36226652643659,-7.48364045660842,-19.7357930633327,15.7674015692889,-9.73130556805123,98.0655406214564,3.48004506721444,11.6736528425706,-3.61541661079658
9.15944363490742,-12.3178363559683,9.9039115326989,-7.47369041502605,-19.5910738167441,15.9730749390495,-9.88196245992516,97.692824022089,3.09753061750937,12.1884998744065,-3.41121927725192
9.26129723627177,-12.3314053964792,10.4439303566657,-7.46031046354043,-19.4466307854054,16.1734538702336,-10.0366784777278,97.33273609198,2.70428939384031,12.7205353110526,-3.19063709492677
9.35428078510924,-12.3451971986624,10.9813473375109,-7.44352952945887,-19.3033294326358,16.3686633787664,-10.1947970497703,96.9874896826637,2.30080564409633,13.2648555943,-2.95699509931559
9.43694122362693,-12.3588877335574,11.5152126239267,-7.42334613121392,-19.1620580124049,16.5587511802864,-10.3557119004211,96.6591979197965,1.8877203273588,13.8162886537907,-2.71385042819232
9.50794526789509,-12.3721682823888,12.0446049990779,-7.39972831154847,-19.0237087071572,16.7437021804699,-10.5188731527014,96.3498483231411,1.46582263241535,14.3694967340854,-2.46486571092271
9.56608238776884,-12.3847530290839,12.568633000525,-7.37261376291225,-18.8891588885311,16.9234541139432,-10.6837911463827,96.0612785179416,1.03603889976855,14.9190814638083,-2.2136781221751
9.6102701746886,-12.3963866797174,13.086434535923,-7.34191033306988,-18.7592530252326,17.0979137959702,-10.8500377745654,95.7951539732913,0.599419036798741,15.45968739781,-1.96377054227608
9.63956176174903,-12.4068518604597,13.5971752526597,-7.30749712146128,-18.6347857550102,17.2669734330809,-11.0172452414026,95.5529481799634,0.157120569162374,15.9861002000178,-1.71835160299946
9.65315492606139,-12.4159760095094,14.1000459650004,-7.26922638284004,-18.516486615726,17.4305264346972,-11.1851022592485,95.3359256592088,-0.289609498566243,16.4933358704472,-1.48025117107619
9.65040243617832,-12.423637463211,14.5942594764743,-7.22692644947563,-18.4050068877085,17.58848217675,-11.3533478154687,95.1451281670296,-0.739454828126358,16.9767179485714,-1.25183699697424
9.63082311882069,-12.4297704485538,15.0790471644653,-7.18040587101197,-18.3009089314054,17.7407791886725,-11.5217627298867,94.981364419587,-1.19105170844776,17.4319404075447,-1.03495687213948
9.59411302240883,-12.4343687335259,15.5536557254118,-7.12945895206054,-18.2046583104565,17.8873962634986,-11.6901592853719,94.8452036115995,-1.64301263202414,17.8551149229167,-0.830908809687066
9.54015596297628,-12.4374877502468,16.0173445107834,-7.07387283247921,-18.1166188719305,18.0283610282116,-11.858369253469,94.736972931479,-2.09395126487883,18.2428022669123,-0.640439677329577
9.46903266296017,-12.4392450916196,16.4693838986605,-7.01343618426144,-18.0370508122966,18.1637555713133,-12.0262306726554,94.6567591993777,-2.5425085516143,18.5920286345568,-0.463770604913305
9.38102764564255,-12.4398193848285,16.9090551133614,-6.94794947244651,-17.9661115961474,18.2937188309776,-12.1935737860407,94.6044146736363,-2.98737964689535,18.9002886299115,-0.300645613034494
9.27663303656055,-12.4394476426811,17.3356517978772,-6.87723654519691,-17.903859442171,18.4184456204825,-12.3602066131669,94.579566991926,-3.42734130805684,19.1655373245973,-0.150398473947941
9.15654845542635,-12.4384212536488,17.7484834573084,-6.80115710975913,-17.85025898796,18.5381824023512,-12.5259007078584,94.5816331374844,-3.86127933158772,19.3861741807868,-0.0120319490376131
9.02167626423815,-12.4370807776455,18.1468806641437,-6.71961946386118,-17.8051887117056,18.6532201764559,-12.6903777244547,94.6098372463995,-4.28821557692922,19.5610216890694,0.115696720436338
8.87311157469391,-12.4358096839585,18.5302017161827,-6.63259272740582,-17.7684497061691,18.763885057715,-12.8532974649435,94.6632319917347,-4.70733409070764,19.6893013376034,0.234189917612827
