Finger Velocity,Scap_X,Scap_Y,Scap_Z,Shoulder horiz abd-adduction,Shoulder flexion-extension,Shoulder internal-external rotation,elbow flexion-extension,forearm pronation-supination,wrist flexion-extension,wrist radial-ulnar deviation
1.02327150990794,-8.71680169133427,-22.4627364900786,3.98872811048437,-10.5446989118188,-43.0099451361324,-2.00076859053104,62.0432231254972,-21.0936521743097,38.537865889595,-51.1932486894753
1.17563801048008,-8.71170450985914,-22.4556344705102,3.98405463221053,-10.5700943743404,-43.0219198228433,-2.01312129908195,62.0182205352421,-20.8569315035905,37.5896954122717,-50.2462551786685
1.33556024480932,-8.70579714713732,-22.4490055318627,3.97766331879956,-10.5934170181782,-43.0387989738133,-2.02404719541361,61.9967689255833,-20.612882614225,36.4552786041901,-49.10978715897
1.5019320666526,-8.69915623758937,-22.4430167336273,3.96939556841999,-10.6142905100969,-43.0605319545096,-2.03319326577241,61.979150258274,-20.3615462552804,35.1242158082057,-47.7733237356249
1.67352560540381,-8.6918886421475,-22.4378352985788,3.95910385149744,-10.6323137693065,-43.0869621797645,-2.04019920640043,61.9655644101329,-20.1029534017294,33.5896589249103,-46.229935427193
1.84900263443563,-8.68413156386969,-22.4336234460999,3.94665589923149,-10.647059251991,-43.1178221153884,-2.04470268883768,61.9561147927977,-19.8371316934668,31.8495119164115,-44.477485804274
2.02692999241049,-8.67605179151931,-22.4305328414055,3.93193901587687,-10.6580719937457,-43.1527300494958,-2.04634480315285,61.9507944680726,-19.5641119934404,29.9076451394817,-42.5198458244798
2.20579851062787,-8.66784400261632,-22.4286988317844,3.91486442240682,-10.6648696931111,-43.1911887487148,-2.04477558275802,61.9494732084906,-19.2839346977722,27.7749584313075,-40.3679555282706
2.38404500369347,-8.65972807454678,-22.4282346687995,3.8953715288752,-10.6669440780224,-43.2325860784639,-2.03965953509334,61.951885974792,-18.9966554429657,25.4700766127665,-38.0405164713973
2.56007691203782,-8.65194537323221,-22.4292259388078,3.8734320205942,-10.6637637365772,-43.2761976261181,-2.03068112213102,61.9576232792478,-18.7023498719031,23.0194447589822,-35.5640819526395
2.73229917907188,-8.64475401360828,-22.4317254385117,3.84905363113636,-10.6547785183107,-43.3211913237056,-2.01755015233159,61.9661238738296,-18.4011171451996,20.4566355749518,-32.9723571265183
2.89914292158524,-8.63842311494274,-22.4357487332022,3.82228346546372,-10.639425524695,-43.3666340266839,-2.0000070573076,61.976670146415,-18.0930819254459,17.8208001818552,-30.3046401543073
3.05909541914757,-8.63322610686286,-22.4412706205322,3.79321073152408,-10.6171366132393,-43.4114999710389,-1.97782802729298,61.9883865335874,-17.778394627099,15.1543699212274,-27.6035119944764
3.2107309117793,-8.62943317838419,-22.4482226923508,3.76196874021345,-10.5873472488786,-43.4546810040291,-1.950829968572,62.0002411752846,-17.4572298138993,12.5003000899908,-24.9120659292453
3.35274165712495,-8.62730300128297,-22.4564921444357,3.72873604173593,-10.5495064592151,-43.4949984625459,-1.91887522571525,62.0110509523085,-17.1297827278524,9.89926959193609,-22.2710912221918
3.48396865885804,-8.62707389946992,-22.4659219340607,3.69373657942305,-10.5030875887756,-43.5312165534854,-1.8818759842574,62.0194899650186,-16.7962640375444,7.38726252157132,-19.7166375797721
3.60343143546145,-8.62895467574442,-22.4763123336024,3.65723875858323,-10.4475994985723,-43.5620570701167,-1.83979823779269,62.0241014299613,-16.4568929950562,4.99385335456918,-17.2782829889577
3.71035614975427,-8.63311534424956,-22.4874238784159,3.61955334825979,-10.3825978207633,-43.5862152573713,-1.79266517263422,62.0233128909427,-16.1118892910624,2.74134007415198,-14.9782503550218
3.80420136014013,-8.63967804886699,-22.4989816603528,3.58103015905292,-10.307695858505,-43.6023766188726,-1.74055980049547,62.0154545639181,-15.7614639959774,0.644686190078643,-12.8313351069012
3.88468057913291,-8.64870847216086,-22.5106808751849,3.54205347088615,-10.2225747218607,-43.6092344397989,-1.68362666033377,61.9987805629581,-15.4058100656748,-1.28790070424577,-10.845472631222
3.95178072769649,-8.66020805339578,-22.5221934936959,3.50303622055777,-10.1269923127426,-43.6055077809736,-1.62207241643614,61.9714926883416,-15.0450929625148,-3.05398551986932,-9.02271493837733
4.0057754511153,-8.6741073350224,-22.5331758923854,3.46441300021926,-10.0207908165963,-43.5899596799926,-1.55616520193618,61.9317663978132,-14.6794419819179,-4.65574234500893,-7.36039244616588
4.04723211338404,-8.69026074337721,-22.5432772492703,3.4266319648312,-9.90390242854713,-43.5614152761686,-1.48623259577299,61.8777785291375,-14.3089428703541,-6.09878859636678,-5.852283952139
4.07701112076124,-8.70844308098538,-22.5521484826583,3.39014579760577,-9.77635313583586,-43.5187795607835,-1.41265817403735,61.8077362981273,-13.9336322719601,-7.39113244473711,-4.48967905923669
4.0962560639888,-8.72834796550841,-22.5594514882223,3.35540193315157,-9.63826448605631,-43.4610544459786,-1.33587663643794,61.7199070625429,-13.5534944593607,-8.54229258106949,-3.26227364720229
4.10637305757782,-8.74958839539663,-22.5648684152926,3.3228322835375,-9.48985337447665,-43.3873548468898,-1.25636756632006,61.612648317226,-13.1684607062263,-9.56260667474803,-2.1588813399212
4.10899766744156,-8.77169955637131,-22.5681107175917,3.29284275009143,-9.33142996954662,-43.2969234827175,-1.1746479326661,61.4844373660487,-12.778411558185,-10.4627177716591,-1.16797074368821
4.10594806061729,-8.79414390803586,-22.568927714457,3.26580283323949,-9.16339395992756,-43.1891441206854,-1.09126348404969,61.3339000993473,-12.3831821609748,-11.2532137569333,-0.278052149511022
4.09916361126982,-8.81631850927566,-22.5671144039051,3.24203567381999,-8.98622935150816,-43.0635530083627,-1.00677921845736,61.1598382925892,-11.9825707095833,-11.9443898971196,0.522057662206463
4.09062927797312,-8.83756445906699,-22.5625182790603,3.2218088695076,-8.80049806878027,-42.9198482618184,-0.921769137867749,60.9612548372012,-11.5763499858388,-12.5461048502367,1.24306438195824
4.08228768987185,-8.85717825085684,-22.5550449171197,3.20532640476001,-8.60683261761804,-42.7578969992593,-0.836805509946714,60.737376322547,-11.164281849834,-13.0677038684027,1.8950941370348
4.0759429684668,-8.8744247681801,-22.5446621379554,3.19272200832268,-8.40592804419919,-42.5777400338089,-0.752447861899429,60.4876724125713,-10.7461344390973,-13.5179875490781,2.48764019765691
4.07316258454167,-8.88855158985048,-22.5314025682746,3.18405420816791,-8.19853338289238,-42.3795939684298,-0.669231928648464,60.2118715030101,-10.3217017086087,-13.905209345695,3.0295426908922
4.0751854981729,-8.89880422661412,-22.5153644954665,3.17930329188434,-7.98544273478606,-42.1638505757465,-0.587658774618998,59.9099722044407,-9.89082481842599,-14.2370895075342,3.52898962097251
4.08284581003404,-8.90444187783708,-22.4967109513208,3.17837030354182,-7.76748606675809,-41.9310733997136,-0.508184306515185,59.582250270756,-9.45341474739801,-14.5208369098509,3.99353085310931
4.09652059677344,-8.90475327623211,-22.4756670291299,3.18107811892058,-7.54551977161949,-41.681991584604,-0.431209391204535,59.2292606804549,-9.00947538197528,-14.7631733102553,4.43009940838334
4.11610829228002,-8.89907218086918,-22.4525155065806,3.18717454663063,-7.32041698633669,-41.4174910141576,-0.357070789420411,58.8518346792895,-8.55912620149681,-14.9703569683949,4.84503648436709
4.14104022863062,-8.88679208425701,-22.4275909167976,3.19633731554462,-7.09305763969106,-41.1386029207669,-0.28603312071527,58.4510717077979,-8.10262356863202,-15.1482043127537,5.24411809079223
4.1703235916468,-8.86737971846344,-22.4012722748747,3.20818074132987,-6.86431820827427,-40.8464901923338,-0.218282094968617,58.0283262655676,-7.6403795579936,-15.3021094227911,5.63258211305583
4.20261012978515,-8.84038697801074,-22.3739747218713,3.2222638207847,-6.63506120569923,-40.5424316580164,-0.15391927533047,57.5851899024313,-7.17297723808144,-15.4370615963542,6.01515510731156
4.23628236262754,-8.80546092343875,-22.3461403882288,3.23809947781517,-6.40612450653868,-40.2278046734718,-0.0929586588206028,57.1234686683983,-6.70118137532607,-15.5576614166132,6.39607838520664
4.26954816880225,-8.76235158863633,-22.3182288007885,3.2551646722128,-6.17831069867782,-39.9040663536086,-0.0353253534864569,56.6451564902445,-6.22594366328552,-15.6681357562919,6.77913312496756
4.30053535010495,-8.71091738670158,-22.2907071618716,3.27291107541078,-5.95237674541422,-39.5727338173553,0.0191434190201427,56.1524050651202,-5.7484017983587,-15.7723521451607,7.16766438573191
4.32737954643643,-8.65112799163261,-22.2640408183615,3.29077601041893,-5.72902429922653,-39.2353638136036,0.0706948632727536,55.6474909632201,-5.26987201445603,-15.8738328373694,7.56460396482132
4.34830107834922,-8.58306466296622,-22.2386842171361,3.30819334387823,-5.50889102702894,-38.893532089267,0.119654695359912,55.132780706258,-4.79183502319702,-15.9757687177208,7.97249200429216
4.36166839221195,-8.50691807190461,-22.2150726113071,3.32460401166839,-5.29254328228394,-38.548812841305,0.16641892975031,54.6106946328943,-4.31591564416805,-16.0810329230418,8.39349715102618
4.36604746269714,-8.42298377410192,-22.1936147364965,3.33946586780861,-5.08047040783285,-38.2027585715287,0.211443665430984,54.0836703780153,-3.84385671724354,-16.192193796872,8.82943494874318
4.36023766344473,-8.33165555044853,-22.1746866146705,3.35226258133913,-4.87308089320613,-37.8568806446575,0.25523327308615,53.5541267838037,-3.37748814547614,-16.3115265947045,9.28178403724657
4.34329528971604,-8.23341689914711,-22.1586265672672,3.36251136878181,-4.67070054994269,-37.5126308399538,0.298327443313584,53.024429028614,-2.91869211519953,-16.4410232566597,9.75169971027098
4.31454621769628,-8.12883100871928,-22.1457314390819,3.36976942880717,-4.47357280477816,-37.1713841809067,0.341287579330539,52.4968557060362,-2.46936567941838,-16.5823996173299,10.2400244966185
4.27358923869758,-8.01852957214393,-22.136253961925,3.3736390248164,-4.28186113909616,-36.8344233193025,0.384683020721525,51.9735685178475,-2.03138197331086,-16.7370996541316,10.7472956951308
4.2202915197634,-7.90320081661865,-22.1304011322678,3.37377122999251,-4.09565362598734,-36.5029247353374,0.42907756991659,51.4565851725906,-1.60655136090668,-16.9062967372256,11.2737501521417
4.15477749267152,-7.7835771205748,-22.1283334454398,3.36986840505201,-3.91496943796755,-36.1779469920353,0.475016753111809,50.9477560119696,-1.19658379504853,-17.0908922350692,11.8193269205494
4.0774123102579,-7.66042256966726,-22.1301648214547,3.36168552218016,-3.7397671186055,-35.860421248427,0.523016178823327,50.4487448110753,-0.803053609789217,-17.2915121659385,12.3836687101206
3.98878085929674,-7.53452076863782,-22.135963070198,3.34903048159557,-3.56995432783975,-35.5511441922411,0.573551265913681,49.961014100709,-0.427367854498811,-17.5085028314078,12.9661232027934
3.88966319477292,-7.40666318030062,-22.1457507680709,3.33176359209598,-3.40539868732949,-35.2507735039503,0.627048509332717,49.4858152363829,-0.0707391289718909,-17.7419265184917,13.5657453610124
3.78100716419016,-7.27763821157684,-22.1595064454145,3.30979640371752,-3.24593928004519,-34.9598259152573,0.68387834787991,49.0241832960917,0.265836303244939,-17.9915584326131,14.1813018223237
3.66389892092004,-7.14822121422603,-22.1771660092668,3.28309008600282,-3.09139831052217,-34.6786778781209,0.74434960581196,48.576936735714,0.581594566765814,-18.256886064305,14.8112784044219
3.53953197911058,-7.01916551762028,-22.1986243488126,3.2516535359034,-2.94159241785753,-34.4075688135156,0.808705407460086,48.14468157363,0.876014100542647,-18.537112215276,15.4538916837968
3.40917543579367,-6.89119456379052,-22.2237370921304,3.21554137538583,-2.79634315586441,-34.1466068602786,0.877120414694815,47.7278197264239,1.14881945306716,-18.8311628676433,16.1071055322258
3.27414197556994,-6.76499517156928,-22.2523225021477,3.17485196474974,-2.65548621120636,-33.8957769930516,0.949699212364306,47.3265609915309,1.39997919718307,-19.1377009088599,16.7686533361451
3.13575627726659,-6.64121191762578,-22.2841635158662,3.12972551900157,-2.51887901381702,-33.6549513246476,1.02647566631105,46.940938082607,1.62969840422261,-19.4551464199927,17.4360663651785
2.99532445816246,-6.52044258878858,-22.3190099438172,3.08034237468971,-2.38640649532232,-33.4239013510785,1.10741309860236,46.5708240715136,1.83840623979041,-19.7817038506985,18.1067084291681
2.85410521714511,-6.40323463430255,-22.356580858221,3.02692141342091,-2.25798486021183,-33.2023118351745,1.19240516022193,46.2159515739754,2.02673932161219,-20.1153959841653,18.7778165887947
2.71328336932004,-6.29008253054779,-22.3965672098161,2.96971860468833,-2.13356334048448,-32.9897959587926,1.28127732924857,45.8759330319967,2.19552152837506,-20.4541041678809,19.4465472656262
2.57394649417894,-6.18142596464615,-22.4386347227474,2.90902558566297,-2.01312399930272,-32.7859113118245,1.37378901866943,45.5502814921656,2.3457409695961,-20.7956139076355,20.1100266604138
2.43706543668157,-6.07764874540135,-22.482427119292,2.845168153747,-1.89667972846025,-32.590176241107,1.46963633422856,45.2384313468538,2.47852482576248,-21.1376646308405,20.7654039744347
2.30347939049282,-5.97907835674973,-22.5275697173384,2.77850451541239,-1.7842706454032,-32.4020860663034,1.56845556775429,44.939758583482,2.595112757901,-21.478002184312,21.4099055748739
2.17388623664941,-5.88598607727126,-22.5736734237134,2.70942311737743,-1.67595913635249,-32.2211286875529,1.66982753807885,44.6536001661602,2.69682957260838,-21.8144324085406,22.0408880256714
2.04883868975487,-5.79858759809006,-22.6203391212336,2.63833988603509,-1.5718238145493,-32.0467991537739,1.77328290007161,44.3792722485041,2.78505780904275,-22.1448739743059,22.6558879105194
1.92874660185517,-5.71704408100836,-22.6671624237675,2.5656947196711,-1.47195267295722,-31.878612817027,1.8783085332748,44.1160869814271,2.86121088835466,-22.4674086442716,23.2526666177212
1.81388548586947,-5.64146360917942,-22.7137387552725,2.49194711642047,-1.37643571704804,-31.7161167566817,1.98435509081211,43.863367729699,2.92670744070164,-22.7803272349582,23.8292486579274
1.70441095638182,-5.57190299320555,-22.7596686948727,2.41757087735963,-1.28535737196332,-31.5588992144153,2.09084573195255,43.6204625439924,2.98294740051925,-23.0821697524017,24.3839525389587
1.60037837583588,-5.50836990505841,-22.8045635170076,2.34304789333804,-1.19878896978059,-31.4065968415517,2.19718598054898,43.3867557574468,3.0312904175391,-23.3717584002168,24.9154136370484
1.50176658639583,-5.45082532028358,-22.8480508383989,2.26886110148974,-1.11678163064652,-31.2588996328981,2.30277455410014,43.1616775999973,3.07303704092022,-23.6482223795062,25.4225988267354
1.40850425834294,-5.39918625638975,-22.8897802567839,2.19548678244085,-1.03935984950057,-31.115553514094,2.40701489924923,42.9447117590944,3.10941298650824,-23.9110136049595,25.9048128502997
1.320497145279,-5.35332880292766,-22.9294288293383,2.12338645991721,-0.966516085626414,-30.9763606606273,2.50932705497872,42.7354008619313,3.14155661079337,-24.1599126456402,26.361696539322
1.23765443255825,-5.3130914447955,-22.9667062012586,2.05299874399115,-0.898206622406782,-30.8411777388691,2.60915936711948,42.5333499050784,3.17050952332845,-24.3950243939481,26.7932170928179
1.15991239152223,-5.27827867990685,-23.0013591749978,1.98473149736061,-0.834348912004095,-30.7099123476732,2.70599953603396,42.3382277050758,3.19721010721559,-24.6167632666065,27.1996507527228
1.08725366471017,-5.24866492155335,-23.0331755204482,1.91895468240374,-0.774820541075073,-30.582517987988,2.79938451772988,42.1497664840886,3.22248961021299,-24.8258282307137,27.5815584751322
1.01972063793429,-5.22399865622237,-23.0619868624978,1.85599417831707,-0.719459859768189,-30.4589879010269,2.88890890108514,41.9677597375933,3.24707042352153,-25.0231685780108,27.9397555623188
0.957421438921631,-5.20400680572916,-23.0876705312481,1.79612677305771,-0.668068226767393,-30.3393481057772,2.97423150985577,41.7920585560636,3.27156617402187,-25.2099419514904,28.2752765725426
0.900527121696224,-5.18839922442074,-23.1101503098312,1.73957645591407,-0.620413753332498,-30.2236499433856,3.05508009668044,41.6225665879977,3.29648330945916,-25.387466471924,28.5893370133223
0.849258637947846,-5.17687325035484,-23.1293960596169,1.6865120695456,-0.576236381882142,-30.1119624044368,3.13125409581444,41.4592338354045,3.32222394149298,-25.5571688996896,28.8832933030982
0.803862504340945,-5.16911822337226,-23.1454222418582,1.63704632455528,-0.535254099724257,-30.0043644819148,3.20262547838846,41.3020494647476,3.34908980671267,-25.7205307476576,29.1586023428757
0.764575044004448,-5.16481988210054,-23.1582853898731,1.59123613329384,-0.497170051420642,-29.9009377651557,3.26913780596539,41.1510337994398,3.37728728744606,-25.8790342573877,29.4167818808319
0.731577112109989,-5.16366455584358,-23.1680806177574,1.54908418045484,-0.461680267844931,-29.8017594708944,3.33080360646985,41.0062296411774,3.40693348606169,-26.0341101349746,29.6593727054628
0.704944347611906,-5.16534307529775,-23.1749372794271,1.51054161467435,-0.42848168535005,-29.70689609211,3.38770020922428,40.86769305407,3.43806336297909,-26.1870888275305,29.8879035453144
0.684601422190603,-5.16955433653137,-23.1790139136799,1.47551171835125,-0.397280100217978,-29.6163978281073,3.43996418295299,40.7354837417933,3.47063793591114,-26.3391568967542,30.1038593832132
0.670290704761478,-5.17600846404114,-23.1804926263969,1.44385439382791,-0.367797701679391,-29.530293938468,3.48778452884221,40.6096551555409,3.50455350616496,-26.491319769287,30.3086537219872
0.661564273441769,-5.18442953011439,-23.1795730711681,1.41539129362069,-0.339779855353991,-29.4485891392499,3.53139479360037,40.4902444915268,3.53965183202532,-26.6443718560787,30.5036051718389
0.657802783845662,-5.19455779915425,-23.1764661962931,1.38991141964353,-0.313000869204769,-29.3712611302017,3.57106428756693,40.3772627717448,3.57573110970715,-26.7988747404216,30.6899185729269
0.658257356904695,-5.20615147729311,-23.1713879309917,1.36717701940341,-0.287268558922212,-29.2982593050073,3.60708862013908,40.2706852450298,3.61255755249972,-26.9551438345296,30.8686707290506
0.662104930089701,-5.21898795954121,-23.1645529880464,1.34692961438778,-0.262427521134442,-29.2295046541945,3.63977979367579,40.1704423859664,3.64987728888722,-27.1132436009529,31.0408007070086
0.668505979571787,-5.23286457876388,-23.1561689637984,1.32889600698118,-0.238361101176412,-29.1648908262126,3.66945611892931,40.0764117961723,3.68742824480038,-27.2729911347098,31.2071045380622
0.676656044840251,-5.24759887305024,-23.1464309170258,1.31279412741169,-0.214992095898115,-29.1042862706811,3.69643222350887,39.9884113209818,3.72495164574903,-27.433967617493,31.3682340378666
0.685826885270816,-5.2630284007456,-23.135516601838,1.29833860059023,-0.192282261768786,-29.0475373529789,3.72100941928537,39.9061936864812,3.76220277679068,-27.5955369058981,31.5246993529141
0.695397007165889,-5.27901014546486,-23.1235825130545,1.28524593226363,-0.170230714174039,-28.9944723036684,3.74346667918162,39.8294429434641,3.79896066939605,-27.7568703212503,31.6768747669662
0.70487347730992,-5.29541956644307,-23.1107608749636,1.27323923284466,-0.148871316692134,-28.9449058495984,3.76405245328085,39.7577729827185,3.83503643511501,-27.9169765832675,31.8250072721386
0.713907327792277,-5.3121493622976,-23.0971576680448,1.2620524149104,-0.128269175781208,-28.8986443643599,3.78297753102448,39.690728363695,3.870280025468,-28.0747357745402,31.9692274202519
0.722303996536613,-5.32910802785352,-23.0828517467358,1.25143381674375,-0.108516377701815,-28.8554913728653,3.80040913056336,39.6277876758237,3.9045852575619,-28.2289362221354,32.1095620038102
0.730028743963844,-5.34621829229156,-23.0678950586082,1.24114921985943,-0.0897271289349548,-28.8152532470162,3.81646636726731,39.5683696254244,3.93789300155648,-28.3783132143593,32.2459481562796
