Finger Velocity,Scap_X,Scap_Y,Scap_Z,Shoulder horiz abd-adduction,Shoulder flexion-extension,Shoulder internal-external rotation,elbow flexion-extension,forearm pronation-supination,wrist flexion-extension,wrist radial-ulnar deviation
0.823823679318379,-13.2454919769564,-21.1467788737398,5.7982572765701,-17.3920818444132,-40.0849446323277,-6.5388305021406,66.7516964444576,-45.5578386798181,28.3291393060559,-35.2766983136215
0.953716731187648,-13.2400178504863,-21.1251807050402,5.77349653144612,-17.4025353031956,-40.09345346815,-6.5386070142871,66.7164487859604,-45.2801978609348,28.1173708127434,-35.0680798716397
1.09219596013371,-13.2347980000087,-21.1018766163551,5.74632637350116,-17.4125873356929,-40.1038646761061,-6.53982595704713,66.6791072453234,-44.9846331417126,27.8601021371648,-34.8175855742366
1.23850276953503,-13.2300060807593,-21.0769156917828,5.71681444316631,-17.4221050181037,-40.116056275745,-6.54251759628153,66.6396640196333,-44.6712305026662,27.5522270656707,-34.5206564978716
1.39180251888581,-13.2258206449716,-21.0503606913258,5.68505527599252,-17.4309584138661,-40.129850956921,-6.54666341521539,66.598113641834,-44.3401381004501,27.1887309250143,-34.1728225034161
1.55117966726666,-13.222421161308,-21.0222863284963,5.65116870072539,-17.4390202893294,-40.1450153825948,-6.55219223314598,66.554449826726,-43.9915606245274,26.7648273694043,-33.7698293379636
1.71563836378185,-13.2199836723084,-20.9927773648144,5.61529774096778,-17.4461649468658,-40.1612605892214,-6.55897769713506,66.5086615712466,-43.6257536362593,26.2761106297713,-33.3077806771014
1.8841070980921,-13.2186761795092,-20.9619265975058,5.57760607725983,-17.4522661299487,-40.1782434931044,-6.56683720734483,66.4607285149596,-43.243017846195,25.7187195160037,-32.7832916582153
2.05544653407597,-13.2186538689846,-20.929832804054,5.53827513261103,-17.4571940043216,-40.1955694915912,-6.5755322560282,66.4106156010124,-42.8436932135148,25.0895078508675,-32.1936488947089
2.22845993772109,-13.2200543104348,-20.8965986941814,5.49750084813261,-17.4608112747034,-40.2127961227585,-6.58477008545866,66.3582671185934,-42.4281527319885,24.3862144104073,-31.5369703844958
2.40190577049856,-13.222992777115,-20.8623289093743,5.45549021709918,-17.4629685564564,-40.2294377151668,-6.59420650729686,66.3036002567559,-41.9967958086571,23.607623994842,-30.8123572779224
2.57451210564129,-13.2275578394514,-20.8271281035731,5.41245764702048,-17.4634991838051,-40.2449709220184,-6.60344968239244,66.2464983493455,-41.5500412279085,22.7537100725034,-30.0200282776408
2.74499256773141,-13.2338073816888,-20.79109913568,5.36862122081922,-17.4622136960873,-40.2588409941178,-6.61206464165602,66.1868040334777,-41.0883197992187,21.8257486779536,-29.1614266631173
2.91206351353368,-13.2417651797285,-20.7543414030882,5.32419892903223,-17.458894293983,-40.270468607753,-6.61957833624563,66.1243125778303,-40.6120668947622,20.8263931461551,-28.2392898013146
3.07446217442903,-13.2514181609727,-20.7169493427544,5.27940494412154,-17.4532895908339,-40.2792570343761,-6.62548503528624,66.0587656623888,-40.121715180897,19.7597001096582,-27.2576717978333
3.23096547420597,-13.2627144442353,-20.6790111205927,5.23444600578841,-17.445109995091,-40.284599426917,-6.62925193597515,65.9898459048184,-39.6176879199589,18.6310991853539,-26.221911871854
3.38040922397743,-13.275562230365,-20.6406075217491,5.18951798287252,-17.4340240475497,-40.2858860065725,-6.63032490625072,65.9171724257954,-39.1003932548914,17.4473019972488,-25.1385441727982
3.52170738072346,-13.289829583719,-20.6018110464158,5.14480267223836,-17.4196560030747,-40.2825109611151,-6.62813433436665,65.8402977249708,-38.5702198889353,16.2161504777155,-24.0151489503792
3.65387103858838,-13.3053451128032,-20.5626852109705,5.10046488766301,-17.4015848949102,-40.2738789039987,-6.62210110466761,65.7587061008289,-38.0275345424706,14.9464093191374,-22.8601498037948
3.77602680312916,-13.3218995267539,-20.5232840529765,5.05664988353842,-17.3793452559558,-40.2594107855888,-6.61164275093172,65.6718137915453,-37.47268151547,13.6475122959463,-21.6825664749236
3.8874341783399,-13.339248014437,-20.4836518397916,5.01348115136622,-17.3524296008545,-40.2385491884283,-6.5961798570809,65.5789709429148,-36.9059846095837,12.3292761874941,-20.4917365812688
3.98750157430547,-13.3571133671065,-20.4438229822058,4.9710586229644,-17.320292699338,-40.2107629743565,-6.57514278022141,65.4794654318524,-36.3277515650753,11.0015986650629,-19.2970222741329
4.07580051947153,-13.375189746311,-20.4038221544338,4.92945731310668,-17.282357598855,-40.1755512818778,-6.54797876410912,65.3725285014945,-35.738281036821,9.67415751629562,-18.1075188004817
4.15207763552711,-13.3931469872408,-20.3636646187346,4.88872643450908,-17.2380232877613,-40.1324468992162,-6.51415949293496,65.2573421072857,-35.1378719702505,8.35612795374101,-16.9317813155688
4.21626390489512,-13.4106353232672,-20.3233567480745,4.84888901678197,-17.1866738339185,-40.0810190634585,-6.47318910422365,65.1330478396336,-34.5268350621235,7.0559326557123,-15.7775841941065
4.26848073170917,-13.4272904183804,-20.2828967363755,4.8099420552885,-17.1276887902261,-40.020875757578,-6.42461263281865,64.9987572775484,-33.9055058345624,5.78103593491935,-14.6517238407211
4.30904226920704,-13.4427385989721,-20.2422754847733,4.77185720470312,-17.0604546282791,-39.951665591928,-6.36802479481247,64.8535636302494,-33.2742587371306,4.53778945407281,-13.5598720520253
4.33845346418906,-13.4566021837328,-20.2014776528321,4.73458201660949,-16.9843769410591,-39.8730793637904,-6.30307894526153,64.6965545269102,-32.6335216254292,3.33133270215569,-12.5064828475039
4.35740326027258,-13.4685048197087,-20.1604828625328,4.69804170310099,-16.89889314123,-39.7848513887539,-6.22949596559395,64.5268258080503,-31.9837899380979,2.16554750972381,-11.4947518709104
4.36675241803807,-13.4780767432717,-20.1192670373448,4.6621413914063,-16.80348536986,-39.686760692922,-6.1470727663855,64.3434961514779,-31.3256398987344,1.04306263686865,-10.5266243755963
4.36751546867189,-13.4849598960059,-20.0778038487789,4.62676881964629,-16.6976933193758,-39.5786321485694,-6.05569003795394,64.1457223344644,-30.6597401043904,-0.0346978324749147,-9.60284567465374
4.36083644005176,-13.488812836069,-20.0360662313013,4.59179741141105,-16.581126663501,-39.4603376330636,-5.95531885203077,63.9327149005228,-29.9868609359441,-1.06742987643325,-8.7230467648777
4.34795820514146,-13.4893153941686,-19.9940279174106,4.55708965634737,-16.4534767763134,-39.3317972940866,-5.8460257171363,63.7037539708818,-29.3078813425697,-2.05583678793058,-7.88585743590589
4.3301856255124,-13.4861730286432,-19.9516649418022,4.52250071433844,-16.3145274143284,-39.192981006442,-5.72797571959265,63.4582049164726,-28.6237926995369,-3.00149630776995,-7.08903929184561
4.30884311232933,-13.4791208353072,-19.9089570687974,4.48788215167069,-16.1641640320829,-39.0439100918473,-5.60143343927385,63.1955335786297,-27.9356995869853,-3.90671522306983,-6.32963152925843
4.28522779812716,-13.4679271650514,-19.8658891098461,4.45308570968082,-16.0023814040845,-38.8846593334202,-5.46676140995798,62.9153206927489,-27.2448174639587,-4.77437836788574,-5.60410291366574
4.26056016856199,-13.4523967981806,-19.8224521144963,4.41796700145381,-15.8292892337445,-38.7153592583263,-5.32441599362602,62.6172751375646,-26.5524673140352,-5.60779816221712,-4.90850412678144
4.23593466713271,-13.4323736227915,-19.7786444340329,4.38238903119281,-15.6451154443381,-38.5361986037585,-5.17494065033782,62.3012456178357,-25.8600674254091,-6.41056991056513,-4.23861549033422
4.21227334092389,-13.4077427676296,-19.7344726679164,4.34622543388955,-15.4502068750551,-38.347426836726,-5.01895670320242,61.9672303978506,-25.1691225428679,-7.18643708940319,-3.5900859742855
4.1902859009318,-13.3784321478085,-19.689952507302,4.30936334027275,-15.2450271578351,-38.1493565674266,-4.85715181481561,61.6153847338814,-24.4812106850603,-7.93916982635586,-2.9585603232646
4.17043949456388,-13.3444133930306,-19.6451094879189,4.27170578500593,-15.0301516356878,-37.9423656708365,-4.6902665027392,61.2460256963225,-23.797967948897,-8.67245875264074,-2.33979204161267
4.1529409512664,-13.3057021411481,-19.5999796586029,4.23317359537837,-14.8062592995143,-37.7268989050259,-4.51907912341756,60.8596341208821,-23.121071622527,-9.3898254317783,-1.72974082666911
4.13773327836753,-13.2623576943783,-19.5546101638511,4.19370672192146,-14.5741218600368,-37.5034687912932,-4.34438984327702,60.4568534861111,-22.4522219076973,-10.0945496749788,-1.12465379956962
4.1245068758586,-13.2144820508114,-19.5090597300948,4.15326499857868,-14.3345902241179,-37.2726555129479,-4.16700419135652,60.0384855920934,-21.7931225236531,-10.7896132993259,-0.521130524055115
4.11272451829441,-13.1622183393006,-19.4633990366889,4.11182834522638,-14.0885787987916,-37.0351056079231,-3.9877168458079,59.6054830215906,-21.145460438605,-11.4776593158633,0.0838276962751745
4.1016578671936,-13.1057487004625,-19.4177109447651,4.06939644741282,-13.8370481857839,-36.7915292770279,-3.80729633140854,59.1589385003447,-20.5108849624075,-12.1609651664854,0.69278339648165
4.09043234271413,-13.0452916697259,-19.3720905509487,4.02598796635515,-13.5809869354859,-36.5426961965672,-3.62647127300049,58.7000714245992,-19.8909864482842,-12.8414284325609,1.30784231989802
4.0780767232569,-12.981099129705,-19.3266450294381,3.98163934652644,-13.3213930875838,-36.2894298011146,-3.44591875050028,58.2302119692134,-19.2872748988917,-13.52056336182,1.93064532703501
4.06357386704889,-12.9134529078877,-19.2814932262801,3.9364032985576,-13.0592562306722,-36.0326000819633,-3.26625515154768,57.7507833073874,-18.7011588462061,-14.1995065664739,2.56237146982598
4.04590937352698,-12.8426611007731,-19.2367649745887,3.89034704084364,-12.7955407687718,-35.7731150217282,-3.08802974661907,57.2632825486414,-18.1339249564195,-14.879030328729,3.20375078417875
4.0241156802482,-12.7690542068689,-19.1926001084045,3.84355038296576,-12.5311709966773,-35.5119108467271,-2.91172104015124,56.7692610290506,-17.5867188747927,-15.5595621033249,3.85508533950767
3.99730986897072,-12.6929811489504,-19.1491471646051,3.79610372790558,-12.2670184673593,-35.249941321666,-2.73773579390975,56.2703045679138,-17.0605278503023,-16.2412089948528,4.5162771197187
3.96472420489956,-12.6148052613966,-19.1065617756822,3.74810605984073,-12.003891992219,-34.988166340346,-2.56641048749719,55.7680142460846,-16.5561656591846,-16.9237861650694,5.18686137838876
3.92572907278299,-12.5349003116049,-19.0650047702251,3.69966297218745,-11.7425304582841,-34.727540089172,-2.39801488449342,55.2639881747667,-16.0742602869272,-17.6068482689025,5.86604420088433
3.87984846483087,-12.4536466156828,-19.0246400111882,3.65088477845849,-11.4835984862522,-34.4689990776513,-2.23275731472949,54.7598046200887,-15.6152447436144,-18.2897231211744,6.55274310670471
3.82676851603001,-12.3714272982188,-18.9856320134503,3.60188473860593,-11.2276848032098,-34.2134503350132,-2.07079126214259,54.2570067383293,-15.1793512958754,-18.9715468517048,7.24562961514235
3.76633979196195,-12.2886247343932,-18.948143391428,3.55277742705671,-10.9753030783504,-33.9617600613791,-1.91222285745748,53.7570890717082,-14.7666093167801,-19.6512998163033,7.94317276289838
3.6985741418472,-12.2056172004913,-18.9123321944662,3.50367726458049,-10.7268948782584,-33.7147430021842,-1.75711890523423,53.261485865481,-14.3768468856571,-20.3278425245961,8.64368262013656
3.62363696519232,-12.1227757468467,-18.8783491921491,3.45469723225545,-10.4828343413448,-33.4731527936418,-1.60551511502129,52.7715611957828,-14.0096961988277,-20.9999508585579,9.34535293095644
3.54183572990923,-12.0404612966246,-18.8463351734636,3.40594778076186,-10.2434341457896,-33.237673503989,-1.45742425046706,52.2886008400749,-13.6646027617306,-21.6663498949971,10.0463021100195
3.45360554286342,-11.9590219657783,-18.8164183234078,3.35753594187571,-10.0089523484352,-33.0089125632605,-1.31284395680692,51.8138057740036,-13.3408382127133,-22.3257456932268,10.7446119370826
3.35949252420544,-11.8787905948105,-18.7887117396428,3.3095646412453,-9.77959969759872,-32.7873952297428,-1.1717640745992,51.3482871388513,-13.0375164808832,-22.9768544594526,11.4383633901648
3.26013568318102,-11.8000824823831,-18.7633111518108,3.26213220155665,-9.55554706081556,-32.5735606874262,-1.03417329096172,50.8930624952667,-12.7536128230354,-23.6184285893294,12.1256691687901
3.15624794019981,-11.7231933145541,-18.7402929071774,3.21533201274067,-9.33693264992071,-32.367759813343,-0.900065012069985,50.4490531668738,-12.4879851494058,-24.2492792946496,12.8047026389032
3.04859688989501,-11.6483972902575,-18.7197122858333,3.16925233305854,-9.12386876784082,-32.1702546022351,-0.769442358852408,50.0170824847392,-12.2393969643703,-24.8682958613267,13.4737231996425
2.93798585308245,-11.5759454511369,-18.701602203236,3.12397617619426,-8.91644784691927,-31.9812191896929,-0.64232219480155,49.5978747689552,-12.0065412300143,-25.4744619291716,14.1310983265936
2.82523572113329,-11.5060642298355,-18.6859723453695,3.07958123856102,-8.71474760075044,-31.8007423748412,-0.518738098604218,49.1920549230102,-11.7880645027628,-26.0668693094036,14.7753226214048
2.7111680527365,-11.4389542344185,-18.672808763512,3.0361398277555,-8.51883517020772,-31.6288315133703,-0.398742203572199,48.8001485642998,-11.582590772952,-26.6447296673284,15.4050340328226
2.59658983817406,-11.3747892878501,-18.6620739349756,2.99371876395042,-8.32877020592461,-31.4654176328822,-0.282405846338814,48.4225826611002,-11.3887445230331,-27.2073840059867,16.0190271101188
2.48228029736219,-11.3137157410689,-18.6537072764693,2.95237923692303,-8.14460688869599,-31.3103616131409,-0.169818999157351,48.0596866848585,-11.2051725925027,-27.7543095063774,16.6162628790782
2.36898002182234,-11.2558520770278,-18.6476260798922,2.91217660983179,-7.96639494123079,-31.1634612705203,-0.0610884983356206,47.7116943137227,-11.0305644967388,-28.2851230932374,17.1958748316218
2.25738270376848,-11.2012888214325,-18.6437268277801,2.87316016638631,-7.79417972579066,-31.02445918443,0.0436648799874174,47.3787457376736,-10.8636708999657,-28.7995811619131,17.7571706322823
2.14812961361909,-11.1500887732595,-18.6418868380676,2.83537280252726,-7.6280015512515,-30.8930510988221,0.14431040743557,47.060890616685,-10.7033199920861,-29.2975751492398,18.2996294026081
2.0418068863159,-11.1022875634304,-18.6419661847897,2.79885066994264,-7.46789433259122,-30.7688947218018,0.24071232381992,46.7580917329027,-10.548431563926,-29.7791229436362,18.8228947454728
1.93894555293495,-11.0578945425245,-18.6438098413173,2.76362278804103,-7.31388376071811,-30.6516187323803,0.332735513299561,46.4702293602518,-10.398028616749,-30.2443564345787,19.3267639466954
1.84002410402746,-11.016893988142,-18.64724999438,2.72971065213174,-7.16598515411305,-30.5408317888597,0.420251711708343,46.1971063539375,-10.2512463859241,-30.6935057710609,19.8111740122065
1.7454731932888,-10.9792466101936,-18.6521084799211,2.69712787571509,-7.02420117536189,-30.436131322871,0.50314598090713,45.9384539404616,-10.107338713848,-31.126881112101,20.2761853497432
1.65568188568994,-10.9448913194362,-18.6581992958114,2.66587991078193,-6.88851960239764,-30.3371119023732,0.581323162555323,45.6939381676659,-9.96568177810479,-31.5448527914443,20.721963977817
1.5710046292668,-10.9137472130866,-18.6653311521623,2.6359638892903,-6.75891134230033,-30.2433729595307,0.654714020515224,45.4631669537303,-9.8257752636495,-31.9478308794523,21.1487631497206
1.49176789912645,-10.8857157232186,-18.6733100278207,2.60736862100371,-6.63532886057353,-30.1545257047216,0.723280796357787,45.2456976520815,-9.68724115081355,-32.3362451160778,21.5569052325314
1.4182752549053,-10.8606828697078,-18.6819417107025,2.58007476985192,-6.51770516840607,-30.0701990826331,0.787021928818047,45.0410450245332,-9.54982035800235,-32.7105261183501,21.9467645916259
1.35080941928464,-10.8385215595337,-18.6910343073679,2.55405521656854,-6.40595346575042,-29.9900446668992,0.845975717798363,44.8486894882307,-9.41336751470618,-33.0710886400143,22.3187521064342
1.28963000281779,-10.8190938777086,-18.7004007108458,2.52927560288785,-6.2999674833319,-29.9137404331879,0.90022274404327,44.6680854741287,-9.27784414163034,-33.4183174887999,22.6733017910115
1.23496577148924,-10.8022533212936,-18.7098610139915,2.50569504375937,-6.1996225070381,-29.8409933944246,0.949886890316948,44.4986697073039,-9.14331048765743,-33.7525565047811,23.0108598254427
1.1870009824056,-10.7878469361415,-18.719244849495,2.48326698821004,-6.1047770090924,-29.7715411232571,0.995134854472237,44.3398691970059,-9.00991623407528,-34.0741007954069,23.3318761348693
1.14585635216287,-10.775717325468,-18.7283936287493,2.46194020425057,-6.01527475880026,-29.7051522243455,1.03617410265688,44.1911087156832,-8.87789024159819,-34.38319223255,23.6367984925344
1.1115665898017,-10.765704509502,-18.7371626415686,2.44165985692399,-5.93094724891938,-29.6416258524466,1.07324928067459,44.0518175599695,-8.74752949445457,-34.6800180585277,23.9260689770978
1.08405783170347,-10.7576476254526,-18.745422968773,2.42236864221657,-5.85161625739726,-29.5807904012268,1.10663717819756,43.9214354248733,-8.61918738812188,-34.9647123261412,24.2001224882549
1.06312927027919,-10.7513864656744,-18.7530631522434,2.40400793564337,-5.77709636928898,-29.5225015099602,1.13664041949492,43.7994172785758,-8.49326150895859,-35.2373598120159,24.4593869290094
1.04844324665685,-10.7467628582008,-18.7599905646401,2.38651891435448,-5.70719730601993,-29.4666395473004,1.16358013346299,43.685237188291,-8.37018106297463,-35.4980019921516,24.7042846113378
1.03952681119586,-10.7436218973757,-18.7661324248176,2.36984361487735,-5.64172594236409,-29.4131067308724,1.18778793231804,43.5783911083346,-8.25039412770955,-35.7466446545529,24.9352344441396
1.03578548459087,-10.7418130335033,-18.7714364146267,2.35392589374421,-5.58048793073398,-29.3618240294812,1.20959759307162,43.4783986947774,-8.13435492408342,-35.9832667403996,25.1526545137775
1.03652741100059,-10.7411910299827,-18.7758708664227,2.338712264703,-5.5232888956384,-29.3127279753653,1.22933687243467,43.3848042537468,-8.02251132824661,-36.2078300337678,25.3569647458018
1.04099416820839,-10.7416167951212,-18.7794245060554,2.32415259385693,-5.46993520665648,-29.2657674918224,1.24731987974983,43.2971769591876,-7.91529285863809,-36.4202893441286,25.5485894163793
1.04839376508348,-10.7429580943299,-18.7821057522359,2.31020064233331,-5.42023438110839,-29.220900819436,1.26384038235296,43.2151104879592,-7.81309937500569,-36.6206028482262,25.7279593535377
1.05793183247271,-10.7450901471143,-18.7839415897429,2.29681445397353,-5.37399520063429,-29.1780926031216,1.27916633469328,43.1382222166123,-7.71629071416184,-36.8087422920954,25.8955137360256
1.06883826302136,-10.7478961123094,-18.7849760505396,2.28395659199912,-5.33102764416511,-29.1373111836106,1.29353582245937,43.0661521107219,-7.62517746647372,-36.9847028067578,26.0517014660907
1.08038799944866,-10.751267464283,-18.7852683522938,2.27159423277277,-5.29114274311727,-29.098526122259,1.30715450993759,42.9985614212613,-7.54001307213411,-37.1485121573384,26.1969821578907
1.09191586979038,-10.7551042622076,-18.784890756268,2.25969912659235,-5.25415245599763,-29.061705978217,1.32019458267964,42.9351312873693,-7.46098738757406,-37.3002393143322,26.3318268367802
1.10282613066702,-10.7593153141652,-18.7839262144396,2.24824743599687,-5.21986964206304,-29.0268163524944,1.33279509319786,42.8755613306756,-7.38822183634861,-37.4400022988819,26.4567184813001
1.1125977199428,-10.7638182380814,-18.7824658784571,2.23721946284193,-5.18810818968272,-28.9938182142596,1.34506354653404,42.8195683101091,-7.32176621193644,-37.5679753060793,26.5721525611143
1.12078625608723,-10.7685394222964,-18.7806065420874,2.22659927759711,-5.15868332745805,-28.9626665289743,1.35707850640804,42.7668848854955,-7.26159714239185,-37.6843951459045,26.6786377340134
