Finger Velocity,Scap_X,Scap_Y,Scap_Z,Shoulder horiz abd-adduction,Shoulder flexion-extension,Shoulder internal-external rotation,elbow flexion-extension,forearm pronation-supination,wrist flexion-extension,wrist radial-ulnar deviation
1.0592301910938,-11.3364942241136,-22.4453990132859,7.28565717795628,-18.8693097729399,-41.4325589447655,-6.61325374564215,69.364871478229,-47.0413066827698,32.7019569503313,-43.7580913868585
1.21051062486937,-11.3331372284239,-22.4469606415157,7.28065674359355,-18.8763961332152,-41.4265833143461,-6.59286885928765,69.3477989575774,-46.8178073579523,32.7383018362112,-43.7827094997433
1.36757638804409,-11.32993140789,-22.4480138780295,7.27300050946752,-18.8836408685381,-41.4222261769235,-6.57182490676565,69.329133437814,-46.5702535837375,32.721509585072,-43.7548214905919
1.52927975899056,-11.3270572977789,-22.4484169912352,7.26244850559979,-18.8907456368067,-41.4196010904308,-6.55032172104263,69.3087044475403,-46.2983534120355,32.6413497658263,-43.6644699449131
1.69441499826288,-11.324711437761,-22.4480216399398,7.24878404551635,-18.8973763855295,-41.4187747357222,-6.52856388091278,69.2863206279896,-46.0020026339221,32.4872312432508,-43.5013522120106
1.8617291273396,-11.323103020683,-22.4466748932258,7.2318192358716,-18.9031652273787,-41.4197594649568,-6.50675308510796,69.2617677192739,-45.6812856969684,32.2484075181762,-43.2550233537503
2.02993654815032,-11.3224498695688,-22.4442214542603,7.21140012366021,-18.9077123450541,-41.4225065692648,-6.48507968322385,69.2348062918073,-45.3364734889706,31.9142287546322,-42.9151455770341
2.19773636859766,-11.3229737894649,-22.4405060461013,7.1874113247925,-18.9105877461981,-41.4269005099375,-6.4637135774635,69.2051691766717,-44.9680180738668,31.4744407927485,-42.4717844284047
2.36383164019868,-11.3248953619062,-22.4353759089785,7.15977999085092,-18.9113327170421,-41.4327543411232,-6.4427947483699,69.1725585643476,-44.5765444860947,30.9195283562169,-41.9157489291076
2.52694988639003,-11.3284282691353,-22.4286833520752,7.12847898811117,-18.909460864442,-41.4398065275746,-6.42242368479179,69.1366427625644,-44.162839700246,30.2410954872488,-41.2389686492527
2.68586438657688,-11.3337732512785,-22.4202883008304,7.09352918328862,-18.9044586882611,-41.4477193279558,-6.4026520149814,69.0970526310827,-43.7278389054093,29.4322708737263,-40.4348953602978
2.83941572241201,-11.3411118116028,-22.4100607843293,7.05500075374821,-18.8957856889632,-41.4560788712481,-6.38347364542448,69.0533777438763,-43.2726092370303,28.4881192678531,-39.4989104622941
2.98653310966286,-11.3505997932355,-22.397883315637,7.01301346512781,-18.8828740854078,-41.4643970002856,-6.36481671906414,69.0051623660599,-42.798331154477,27.4060331232969,-38.4287123412988
3.1262550418274,-11.3623609569995,-22.3836531282035,6.96773588506957,-18.8651282879467,-41.4721148947909,-6.34653670597496,68.9519013719725,-42.3062776963011,26.1860719394801,-37.2246512063192
3.25774876559621,-11.3764806961988,-22.3672842400447,6.91938352766799,-18.8419243336642,-41.4786084228584,-6.32841093793876,68.8930362701278,-41.7977918952168,24.8312122180823,-35.889974398069
3.38032809578251,-11.3930000313991,-22.3487093213976,6.86821595017302,-18.812609538366,-41.4831951118668,-6.31013489363354,68.8279515383311,-41.2742626906318,23.3474703954072,-34.430944636201
3.49346905961375,-11.4119100367675,-22.3278813405568,6.81453285198173,-18.7765026518678,-41.4851425806789,-6.29132053081767,68.7559715061465,-40.7370997366349,21.7438664673787,-32.8567990289857
3.59682283816895,-11.4331468585971,-22.3047749590307,6.75866925508295,-18.7328948206851,-41.4836782317156,-6.27149694077467,68.6763580501688,-40.1877075639345,20.0322082811694,-31.1795289229536
3.69022544771223,-11.456587493956,-22.2793876449386,6.70098987291111,-18.6810516685384,-41.4779999577107,-6.25011356238668,68.5883093875977,-39.6274596107068,18.2266950828169,-29.4134792802467
3.77370357866258,-11.4820464993119,-22.251740475314,6.64188279946306,-18.620216802091,-41.4672875713244,-6.22654613474135,68.4909602617939,-39.0576726864618,16.3433613868709,-27.5747887446933
3.84747599039091,-11.5092737923017,-22.2218786027986,6.58175267173059,-18.5496170344544,-41.450714624155,-6.20010548790698,68.3833838067518,-38.4795824736143,14.3994043739694,-25.6807136932883
3.9119498549099,-11.5379536931075,-22.1898713671086,6.52101347500051,-18.4684695854574,-41.4274602604206,-6.17004917385001,68.2645953555177,-37.8943207009108,12.4124549294161,-23.7488964677171
3.96771146520587,-11.567705325492,-22.1558120350189,6.46008117108894,-18.3759914585458,-41.3967207634003,-6.13559582758592,68.1335584235204,-37.302894637094,10.399860019748,-21.796645547105
4.0155107926283,-11.5980844627249,-22.1198171557308,6.39936633316932,-18.2714111054802,-41.3577205046966,-6.09594202760386,67.9891930562484,-36.7061695529854,8.37804049726508,-19.8402917861742
4.05623951462303,-11.6285868624283,-22.0820255244274,6.33926696690986,-18.1539823721195,-41.3097220913708,-6.0502812994209,67.8303866842093,-36.104854792,6.36197464871626,-17.8946710213052
4.09090236283275,-11.6586530898054,-22.0425967581587,6.28016168582318,-18.0230005775668,-41.2520356060671,-5.99782478236396,67.6560075731698,-35.4994940725162,4.36483737871104,-15.9727628574622
4.1205819821244,-11.687674784629,-22.0017095049283,6.22240338961656,-17.8778204257992,-41.1840269259728,-5.93782296454723,67.4649208858691,-34.890460604647,2.39780261475262,-14.0854930754613
4.14639795166528,-11.7150022871459,-21.9595593256382,6.16631356951116,-17.7178752949902,-41.1051251710638,-5.86958779228785,67.2560072768754,-34.2779575195801,0.469996860568876,-12.2416873741121
4.1694611863453,-11.7399535034083,-21.9163563039449,6.11217733647215,-17.542697304851,-41.0148293688547,-5.79251438482958,67.0281838267302,-33.6620239743253,-1.41142214202863,-10.448150149229
4.19082556618878,-11.7618238613809,-21.8723224457622,6.06023924073794,-17.3519374377701,-40.9127144359849,-5.70610154094101,66.7804269908556,-33.0425471114069,-3.24109488598023,-8.70983480502919
4.21143925287147,-11.7798971844649,-21.827688925371,6.01069992812032,-17.1453848995653,-40.7984365678414,-5.60997022004498,66.5117971001783,-32.4192798290801,-5.01523205079289,-7.03007106397151
4.23209863571788,-11.7934572873267,-21.7826932209794,5.96371366251442,-16.9229848627665,-40.6717380998858,-5.50387922364684,66.2214638161432,-31.7918640686895,-6.73135996214711,-5.41081822013752
4.25340808266357,-11.8018000784404,-21.7375761656156,5.91938673361066,-16.6848537454746,-40.5324518679472,-5.38773739204589,65.9087318281914,-31.1598590765267,-8.38806476704373,-3.85291933409539
4.27574855205554,-11.804245933558,-21.6925789265256,5.87777676048826,-16.4312912408585,-40.3805050584445,-5.26161175867836,65.5730659973465,-30.5227738719668,-9.9847537550619,-2.35633837199544
4.29925760102233,-11.800152085024,-21.6479399224026,5.83889289247383,-16.1627884187012,-40.2159225081329,-5.12573125855613,65.2141150983952,-29.8801029665656,-11.521445581161,-0.920369107619003
4.32382243895823,-11.788924755594,-21.603891694942,5.80269689672751,-15.8800313594247,-40.0388293883649,-4.98048575632956,64.8317332967826,-29.2313642343351,-12.9985953311558,0.456189558317086
4.3490865394721,-11.7700307548149,-21.5606577691161,5.7691051071257,-15.5838999424352,-39.8494531904669,-4.82642033443872,64.4259985193625,-28.5761377276563,-14.4169559387348,1.77489284080526
4.37446912151112,-11.7430082531074,-21.5184495614055,5.73799119196284,-15.2754615886456,-39.6481249144684,-4.66422495873913,63.9972269463262,-27.9141041610458,-15.7774745407858,3.03754203308581
4.39919573625086,-11.707476454679,-21.4774634203859,5.70918968048344,-14.9559599464813,-39.4352793512393,-4.49471981710148,63.5459829661155,-27.2450817471808,-17.0812206656518,4.24610576627085
4.42233741073293,-11.6631439062203,-21.437877903562,5.68250017212799,-14.6267987031511,-39.2114543366473,-4.31883680282774,63.073084088415,-26.5690600735861,-18.3293422396205,5.40266636224874
4.44285538870322,-11.6098152049265,-21.3998514050836,5.65769213919437,-14.2895208900219,-38.9772888436273,-4.13759778211379,62.5796004875557,-25.8862297614716,-19.5230449045398,6.50938674250136
4.45964847553923,-11.5473959072683,-21.3635202498641,5.63451022451044,-13.9457842272353,-38.73351976452,-3.95209043394726,62.0668490331126,-25.1970067519206,-20.6635898692446,7.56849327503581
4.47160026957836,-11.475895488596,-21.3289973595901,5.61267993063306,-13.5973332130839,-38.4809772301628,-3.76344257322671,61.5363818445302,-24.5020502145973,-21.7523054143258,8.58227004212593
4.47762403955861,-11.3954282612478,-21.2963715742752,5.59191359425899,-13.2459687998191,-38.2205783283943,-3.57279595558426,60.9899695787935,-23.802273261111,-22.790607246002,9.55306027733409
4.47670357429892,-11.3062122220855,-21.2657076803622,5.57191653669272,-12.8935165992413,-37.9533191302425,-3.38128060223491,60.4295798235617,-23.0988458564028,-23.7800231727069,10.4832711440852
4.46792889205158,-11.2085658654289,-21.2370471562462,5.55239327736361,-12.5417946188298,-37.68026500006,-3.18999065518858,59.8573511170771,-22.3931895473283,-24.7222180617193,11.375378593488
4.45052618997885,-11.1029030608563,-21.2104096030228,5.53305369271229,-12.1925815361578,-37.4025392437602,-2.99996266560854,59.2755632434735,-21.6869638685692,-25.619015691191,12.2319297127981
4.4238818074634,-10.9897261548084,-21.1857947867463,5.51361899766472,-11.8475864770376,-37.1213102302173,-2.81215704301755,58.6866045564812,-20.982044550376,-26.4724148746198,13.0555407025876
4.38756026426569,-10.8696175081334,-21.1631851821028,5.49382742209626,-11.5084211789863,-36.8377772013619,-2.62744317843382,58.0929371677691,-20.2804939461993,-27.284598017879,13.8488893355435
4.34131662592969,-10.7432297260967,-21.1425488787189,5.47343945196552,-11.1765753053297,-36.5531550610491,-2.44658852570097,57.4970608965829,-19.5845244167236,-28.0579310099774,14.6147013979251
4.28510356211125,-10.6112748701434,-21.1238426923752,5.45224250708141,-10.8533955342588,-36.2686584949285,-2.27025169913855,56.9014769099776,-18.8964557325238,-28.7949540006175,15.355731152527
4.2190735179214,-10.4745129591074,-21.1070153161791,5.43005493744483,-10.540068889431,-35.9854858185631,-2.09897943606827,56.3086519839275,-18.2186678603739,-29.4983631453599,16.0747362604352
4.14357643085193,-10.3337400696207,-21.0920103526742,5.40672923831075,-10.2376106139277,-35.7048029764906,-1.93320709397881,55.7209842847405,-17.5535507443911,-30.1709838027592,16.7744478627994
4.05915340920979,-10.189776331395,-21.0787690861462,5.38215440814154,-9.94685672542447,-35.4277281204737,-1.77326221542995,55.1407715098235,-16.9034528583353,-30.8157359886142,17.4575366946678
3.96652675069874,-10.0434540858918,-21.0672328817342,5.35625739971321,-9.66846123041529,-35.1553171814113,-1.61937060409777,54.5701821378921,-16.2706303791253,-31.4355931707487,18.1265762239541
3.86658662659611,-9.89560644173975,-21.05734513005,5.32900364024468,-9.40289782046714,-34.8885508168154,-1.47166431219588,54.0112304202594,-15.6571988122366,-32.033535715123,18.7840038869027
3.76037469008653,-9.74705642222127,-21.0490526892268,5.30039662121885,-9.15046572786164,-34.6283230657632,-1.33019094021539,53.4657555980953,-15.0650887877293,-32.6125004280402,19.4320815075379
3.64906478801111,-9.59860686328632,-21.0423068078373,5.270476583194,-8.91129928910299,-34.3754319790887,-1.19492369044554,52.935405661825,-14.4960075412027,-33.1753276735605,20.0728559509724
3.53394086597388,-9.4510311877584,-21.0370635395923,5.23931834510082,-8.68538065960194,-34.1305724193038,-1.06577169006576,52.4216257882067,-13.9514072986039,-33.7247075374727,20.708121024894
3.41637206355751,-9.30506515409863,-21.0332836823105,5.20702834999636,-8.47255504520326,-33.894331147721,-0.942590197812617,51.925651410002,-13.4324614098905,-34.2631265203569,21.3393816607634
3.297784912417,-9.16139965577582,-21.0309322886297,5.17374101889762,-8.27254776820618,-33.6671842395227,-0.82519041474418,51.4485057063882,-12.9400486562649,-34.7928162887257,21.967821479865
3.17963249873065,-9.02067462800535,-21.0299778052859,5.13961452072815,-8.08498247000618,-33.4494967935875,-0.713348718640475,50.9910011639901,-12.4747457368296,-35.3157060904444,22.5942749558338
3.06336046949575,-8.88347410041861,-21.0303909039547,5.10482607907559,-7.90939977203241,-33.2415248345407,-0.606815225819321,50.5537447587514,-12.0368275677739,-35.8333805404256,23.2192054949988
2.950369898908,-8.75032241603588,-21.0321430716237,5.06956694454823,-7.74527576925724,-33.0434192412331,-0.505321653157084,50.1371462480702,-11.6262747281994,-36.3470445659382,23.8426908223143
2.84197734203711,-8.62168161821507,-21.0352050319016,5.03403716477857,-7.59203980785805,-32.855231480668,-0.408588503221571,49.7414290332984,-11.2427871731486,-36.8574972989095,24.4644170267743
2.7393729322005,-8.49794998742079,-21.0395450688244,4.9984402833843,-7.4490910902859,-32.6769208832778,-0.316331618978831,49.3666430475476,-10.8858032074124,-37.3651165621707,25.0836824514888
2.6435781279983,-8.3794616883833,-21.0451273208334,4.96297809587116,-7.3158137497485,-32.5083631686749,-0.228268150215375,49.012679139226,-10.5545226642367,-37.8698553046788,25.6994123106602
2.55540560770244,-8.26648746678664,-21.051910105976,4.92784558614826,-7.19159013779301,-32.3493599210764,-0.144121951676176,48.6792844551722,-10.2479332451142,-38.3712509109674,26.3101844980281
2.47542465411977,-8.15923631584356,-21.0598443323194,4.89322616384819,-7.0758121702707,-32.1996487155427,-0.0636284068409127,48.3660783742388,-9.96483903452732,-38.8684477624354,26.9142665403722
2.40393588075938,-8.05785801905572,-21.0688720417239,4.85928732100175,-6.96789067549399,-32.0589136031646,0.0134613504788578,48.0725685976546,-9.70389029490785,-39.3602327776597,27.5096630638772
2.34095899797893,-7.96244646545681,-21.0789251304559,4.8261768252119,-6.8672627794215,-31.9267956716653,0.0873768601906258,47.7981670626421,-9.46361376199684,-39.8450829269867,28.0941725073776
2.28623628974628,-7.87304362514369,-21.0899242854573,4.79401956131613,-6.77339744002129,-31.8029034085057,0.15832545835777,47.5422054075332,-9.24244278666073,-40.3212229595432,28.6654511901314
2.23925260748728,-7.78964406427246,-21.1017781705915,4.76291512100376,-6.68579930132644,-31.6868226093843,0.226490151910042,47.3039497769786,-9.03874679110026,-40.786690893478,29.2210823056175
2.19927035168599,-7.71219987086723,-21.114382894941,4.73293621881535,-6.60401107464669,-31.5781255985175,0.292028290764586,47.082614813125,-8.85085961381332,-41.2394083019024,29.758647046458
2.16537570613142,-7.64062585831282,-21.1276217966223,4.70412798453846,-6.52761466941945,-31.4763795600106,0.355071063001422,46.8773767329175,-8.67710640440484,-41.6772521481109,30.2757949174414
2.13653092311248,-7.57480491416046,-21.1413655784184,4.67650814869534,-6.45623129123861,-31.3811538226012,0.415723808095993,46.6873854417016,-8.51582879668267,-42.0981249157417,30.7703103758387
2.11162709336729,-7.51459336765415,-21.1554728310123,4.65006810273397,-6.38952070620371,-31.2920259918042,0.474067102374432,46.5117756752169,-8.36540813814482,-42.5000200373724,31.2401732340189
2.08953255632116,-7.45982625830806,-21.1697909719835,4.62477478190363,-6.32717984820659,-31.2085868811352,0.530158524630779,46.3496771937377,-8.22428659063873,-42.8810801131874,31.683610730345
2.06913357282688,-7.41032239801321,-21.1841576136104,4.60057328912314,-6.26894092621521,-31.1304442537382,0.584034967137774,46.2002240769566,-8.09098594945043,-43.2396460673926,32.0991397627762
2.04936561163487,-7.36588912992727,-21.1984023525505,4.57739015343155,-6.21456917381869,-31.0572254428921,0.635715327709453,46.0625631916316,-7.96412406529145,-43.5742961277648,32.4855984145531
2.02923516427004,-7.32632669977603,-21.2123489532451,4.55513709626241,-6.16386037016416,-30.9885789701414,0.685203408295837,45.9358619260118,-7.84242879832273,-43.8838742416357,32.8421665164048
2.00783314338816,-7.29143217075614,-21.2258178771129,4.53371516173728,-6.11663824443929,-30.9241753191457,0.732490856134526,45.819315298584,-7.72474948047924,-44.1675081925793,33.1683755410256
1.98434156448304,-7.2610028325606,-21.2386290925272,4.51301905330689,-6.07275185180167,-30.8637070486555,0.777560011120804,45.7121525471068,-7.61006590413215,-44.4246182209503,33.4641085891096
1.95803542046414,-7.23483907685274,-21.2506050872327,4.49294150958443,-6.03207297922693,-30.8068884380017,0.820386560131918,45.613643288559,-7.49749488798651,-44.6549173513591,33.7295915797828
1.92828155654253,-7.21274673322832,-21.2615739970068,4.47337754881653,-5.99449361119236,-30.7534548543876,0.860941937139956,45.5231033202802,-7.38629449867263,-44.8584048566624,33.9653769758855
1.89453606998922,-7.19453887900262,-21.2713727634181,4.45422841553081,-5.95992346306281,-30.7031620162982,0.899195441621744,45.4399001162317,-7.27586603634002,-45.0353543222566,34.1723214451265
1.85634140373436,-7.18003715189714,-21.279850238978,4.43540507548895,-5.92828757766246,-30.6557853047918,0.935116074753439,45.3634580635385,-7.16575392981029,-45.1862976454619,34.3515588033844
1.81332395039808,-7.16907260693652,-21.2868701672081,4.41683112643869,-5.89952397874723,-30.6111192462954,0.968674112255511,45.2932634810631,-7.05564372944754,-45.312006084206,34.5044694547824
1.76519268120259,-7.16148616838524,-21.2923139745121,4.39844502135184,-5.87358138279318,-30.5689772582684,0.99984244382925,45.2288694588599,-6.94535842519122,-45.4134692325185,34.6326473852053
1.71173908869579,-7.15712873529344,-21.29608331733,4.38020153600503,-5.85041698437185,-30.529191715072,1.02859771126163,45.1699005510528,-6.83485334294901,-45.4918725923192,34.7378656109548
1.65283859822414,-7.15586100559385,-21.2981023314722,4.36207245167943,-5.82999434591363,-30.4916143576167,1.05492127081585,45.1160573429694,-6.72420987844436,-45.5485742408007,34.8220408358619
1.58845357266806,-7.15755308828036,-21.2983195328562,4.34404646391964,-5.81228143599274,-30.4561170360526,1.07879999263736,45.067120894843,-6.61362831263307,-45.5850809535862,34.8871979255935
1.51863812594935,-7.16208397513746,-21.2967093228992,4.32612836696038,-5.79724886874461,-30.4225927378594,1.100226893503,45.0229570372276,-6.50341991975519,-45.6030240314952,34.9354346756095
1.44354520763082,-7.16934094197659,-21.2932730589027,4.30833759755196,-5.78486839833081,-30.3909568157629,1.11920158168811,44.9835204567845,-6.39399853380822,-45.6041349934316,34.9688872423953
1.36343689091844,-7.1792189437516,-21.2880396592009,4.29070624832865,-5.77511171517576,-30.3611482967621,1.13573047653492,44.9488584680307,-6.28587169080076,-45.5902212406211,34.9896965298939
1.27869961825468,-7.19162005804664,-21.2810657226926,4.27327667747311,-5.76794957722668,-30.3331311297147,1.14982675433483,44.9191143235716,-6.1796314232744,-45.5631417695081,34.9999757704773
1.18986757358298,-7.20645301777802,-21.2724351509406,4.25609884831156,-5.76335129501308,-30.3068952146928,1.1615099706884,44.8945298805776,-6.07594475865032,-45.524783013683,35.0017795105077
1.0976598020127,-7.22363285779424,-21.2622582678767,4.23922753142335,-5.76128457793409,-30.2824570517758,1.17080532007137,44.8754474218141,-5.97554396713533,-45.4770349298734,34.9970742070946
1.00304097564662,-7.24308068295158,-21.2506704381905,4.22271949507455,-5.76171574163458,-30.2598598503554,1.17774251534981,44.8623104286172,-5.87921661623176,-45.4217675054903,34.9877106650263
0.9073230908506,-7.26472354847599,-21.2378301920538,4.20663079889912,-5.76461027147479,-30.2391729521278,1.18235430038079,44.8556631198313,-5.78779551133285,-45.3608079419011,34.9753985816641
0.812337387381926,-7.28849442776914,-21.2239168719993,4.19101429136247,-5.76993373394976,-30.2204904399664,1.18467464317983,44.856148601525,-5.70214862685374,-45.2959188374801,34.9616835065079
0.720721427250528,-7.31433222885667,-21.2091278284417,4.17591739364815,-5.77765302478498,-30.2039288289362,1.18473669066202,44.864505513706,-5.62316915167594,-45.2287777408402,34.9479265472514
