Finger Velocity,Scap_X,Scap_Y,Scap_Z,Shoulder horiz abd-adduction,Shoulder flexion-extension,Shoulder internal-external rotation,elbow flexion-extension,forearm pronation-supination,wrist flexion-extension,wrist radial-ulnar deviation
1.8561184277616,-9.15429494756021,-18.8448011001054,10.7795815190725,-28.0115067466377,-39.643373538042,-15.1921393658684,67.6376118466033,-39.3496934731361,21.444770750609,-24.6958371950394
2.441385763809,-9.11748519494523,-18.8610676817721,10.7435273010909,-28.3706796465406,-39.4359277499644,-15.3316104849662,67.9801353168092,-38.5587757526616,21.7444989248999,-24.926597176708
3.10886957387613,-9.08532360392889,-18.8774936156615,10.7039264440032,-28.7353480284103,-39.2123654678868,-15.4709863427591,68.370846291026,-37.7167309855221,22.0301077622176,-25.13063094488
3.85233584233721,-9.05873767490822,-18.8935301328342,10.6602730899816,-29.1033005310927,-38.9708757941155,-15.6090934347247,68.8123759621926,-36.8235912561423,22.2940857266057,-25.3030013387172
4.66758915493001,-9.03865945233816,-18.908538598903,10.6120065347395,-29.4721064572652,-38.7095840508363,-15.7446908880497,69.3070780647851,-35.8798958446531,22.5291163977796,-25.4395904245921
5.55101805036071,-9.02601319483276,-18.9217917449914,10.5585130590039,-29.8391293669902,-38.4265791139659,-15.8764674838077,69.8570036941433,-34.8867259192422,22.7283112056769,-25.5372910178882
6.49894374979695,-9.02170266063706,-18.9324765698229,10.4991290607175,-30.2015474908694,-38.1199420950334,-16.0030381924115,70.4638816058981,-33.8457286459325,22.8854057993559,-25.5941267167307
7.50731270030656,-9.02659814714872,-18.9396989586116,10.4331455621657,-30.5563810577853,-37.7877754376431,-16.1229408566093,71.1291027520528,-32.759128780514,22.9949118567904,-25.6092891176979
8.57154929508186,-9.04152340768349,-18.9424900400132,10.3598141379573,-30.9005262911108,-37.4282314840084,-16.2346336895838,71.8537074188699,-31.6297263127826,23.0522208760812,-25.5830884531112
9.68649100645946,-9.06724255942588,-18.9398142699251,10.2783542725645,-31.230795478395,-37.0395396137676,-16.3364942419642,72.638373153369,-30.460879469927,23.0536612747652,-25.5168225646693
10.8463706503898,-9.10444709652449,-18.930579188381,10.1879621118245,-31.5439621845177,-36.6200311637251,-16.4268204418425,73.483401724285,-29.2564732914371,22.9965143464399,-25.4125778925404
12.0448286013527,-9.15374313166359,-18.9136467459861,10.0878205241672,-31.836810381458,-36.1681614936813,-16.5038342345212,74.3887036485957,-28.0208749589565,22.8789977332683,-25.2729837519703
13.2749459384534,-9.21563900633713,-18.8878460455532,9.97711033586975,-32.1061860390626,-35.6825287534756,-16.5656882477274,75.3537792930931,-26.7588779826182,22.7002266842077,-25.1009463122441
14.5292933613829,-9.29053343146841,-18.8519872997106,9.85502255058401,-32.3490495861851,-35.1618891152626,-16.6104757846802,76.3776961850042,-25.475638100395,22.4601633364522,-24.8993903843493
15.7999926023903,-9.37870434220018,-18.804876771014,9.72077130823775,-32.5625276177689,-34.6051684542567,-16.6362443057838,77.4590628716656,-24.1766042466576,22.1595627177914,-24.6710349376976
17.0787880012598,-9.48029867005971,-18.7453324385523,9.57360728675024,-32.7439622820788,-34.01147068302,-16.6410124131719,78.5960003774166,-22.8674481205755,21.7999215284778,-24.4182225433207
18.3571263786643,-9.59532325018501,-18.6722001214491,9.41283120847726,-32.8909569243858,-33.3800831540609,-16.6227902228649,79.7861129415734,-21.5539956958403,21.383432624485,-24.1428147691788
19.6262435699493,-9.72363709060119,-18.5843697799225,9.23780708842106,-33.0014167875815,-32.7104797200439,-16.5796029176448,81.0264602328148,-20.2421634649791,20.9129451310587,-23.8461564949066
20.8772560839689,-9.86494523531867,-18.4807917038872,9.0479748572159,-33.0735838713342,-32.002322156193,-16.5095172267244,82.3135335959854,-18.9379013575929,20.3919277648846,-23.5291037680727
22.1012563925751,-10.0187944533468,-18.3604922858099,8.84286200951208,-33.1060654019397,-31.2554606914474,-16.4106705642499,83.6432390879488,-17.6471432137403,19.8244314835226,-23.1921034248467
23.2894103703512,-10.1845709803713,-18.2225890610891,8.62209396515622,-33.0978557088155,-30.4699343672128,-16.2813025541536,85.0108900985148,-16.3757645709283,19.2150470339641,-22.8353088982371
24.4330554110046,-10.3615005271665,-18.0663046900983,8.38540288168519,-33.0483515752423,-29.645971861002,-16.1197886501826,86.4112122312165,-15.129546486613,18.5688532212058,-22.4587154997081
25.5237977581819,-10.5486507469032,-17.8909795552229,8.13263471698124,-32.9573612930153,-28.7839932896705,-15.9246755118893,87.8383628419136,-13.9141432979406,17.8913525661485,-22.0622995718444
26.5536076113358,-10.7449363189676,-17.6960826561772,7.86375440770771,-32.8251077144774,-27.8846133464983,-15.6947177152979,89.2859672152806,-12.7350517103227,17.1883922371132,-21.64614857083
27.5149106057928,-10.9491267556481,-17.4812205085566,7.57884910142989,-32.6522256006954,-26.9486459303539,-15.4289152615759,90.7471728134152,-11.5975784624855,16.4660695262749,-21.2105725905808
28.4006743226137,-11.1598569694936,-17.2461437840102,7.27812945501908,-32.4397535408761,-25.9771102040588,-15.1265511972489,92.2147223529353,-10.506804055027,15.7306225935761,-20.7561914503574
29.2044885592203,-11.3756405581959,-16.9907514762034,6.96192908231352,-32.1891206744542,-24.9712377896384,-14.7872284727094,93.6810456431595,-9.46754062641453,14.9883086520436,-20.2839947804815
29.9206381860909,-11.5948856769788,-16.7150924364249,6.63070229328858,-31.9021283924693,-23.9324805850681,-14.4109049473777,95.1383691515967,-8.48428294452532,14.2452731365832,-19.7953752677156
30.5441675274123,-11.8159132799021,-16.4193641968732,6.28502031123109,-31.5809271491633,-22.8625184807939,-13.9979252220447,96.5788411876894,-7.56115254676638,13.5074145838712,-19.2921372236471
31.0709353330526,-12.0369774242933,-16.1039090853224,5.92556618185672,-31.227988496186,-21.7632660781354,-13.549047780354,97.9946694690732,-6.70183618774136,12.780250866016,-18.776483900731
31.4976595537373,-12.2562872519162,-15.7692077245939,5.55312859834779,-30.846072470224,-20.6368773856841,-13.0654657969509,99.378266738231,-5.90952082983247,12.0687929813018,-18.2509875556699
31.8219512885529,-12.47203019438,-15.4158700940397,5.16859486001216,-30.4381905351575,-19.4857474116544,-12.5488199556821,100.722399144033,-5.18682833619612,11.3774327191037,-17.7185462332164
32.042337441213,-12.6823959064303,-15.0446243994249,4.77294316303128,-30.007564417649,-18.3125095876036,-12.0012017356856,102.02033141732,-4.53575369426938,10.7098501096735,-17.1823307411602
32.158271795958,-12.8856004126557,-14.6563040489739,4.36723439479766,-29.5575813704188,-17.1200280577814,-11.4251458707086,103.265962551364,-3.9576109248527,10.0689456318812,-16.6457244966081
32.1701344023823,-13.0799099588345,-14.2518330704084,3.95260357447508,-29.0917466107478,-15.9113840609274,-10.8236110644688,104.453945802484,-3.45299077408127,9.45680074687369,-16.1122580773789
32.0792193376678,-13.2636640836943,-13.832210333615,3.5302510557141,-28.6136338695863,-14.6898559250473,-10.1999485407766,105.579787371764,-3.02173384134659,8.87466857710345,-15.5855396423734
31.8877110913961,-13.4352974658298,-13.3984929708961,3.10143358339049,-28.1268351235121,-13.4588925724282,-9.55785859725228,106.639919096461,-2.66292198865612,8.3229946285181,-15.0691820649417
31.598649989155,-13.5933601504743,-12.9517794091103,2.66745527386702,-27.6349106628363,-12.2220808476183,-8.90133597786388,107.631741805917,-2.37488975552454,7.80146555888403,-14.5667277176564
31.2158872335695,-13.7365358182962,-12.4931924368507,2.22965856973267,-27.1413406804336,-10.9831073855157,-8.23460553292947,108.553637577859,-2.15525615994105,7.30908232128749,-14.0815722941728
30.7440302924549,-13.8636578200996,-12.023862718209,1.7894152095961,-26.649479550222,-9.74571609034958,-7.56205023915459,109.404950837744,-2.000975838042,6.84425270330256,-13.6168896992109
30.1883795011423,-13.9737227647887,-11.5449131330722,1.34811725138499,-26.1625138958025,-8.51366256992535,-6.88813414593022,110.185939937504,-1.90840712775718,6.40489742396897,-13.1755606897271
29.5548568677422,-14.0659015105428,-11.0574442781575,0.907168186733138,-25.6834254231481,-7.29066704171688,-6.21732313808676,110.897702394583,-1.87339359450698,5.98856359251676,-12.7601084295418
28.8499281747335,-14.139547467271,-10.5625214092843,0.467974175878348,-25.2149593134546,-6.08036728568341,-5.55400651605876,111.54207824829,-1.89135475391372,5.59253949584913,-12.3726442831201
28.0805195569016,-14.1942021696464,-10.0611630484191,0.0319354140566613,-24.7595987623281,-4.88627316172879,-4.90242228103925,112.12153690947,-1.95738143836005,5.21396532800868,-12.0148269281364
27.2539298039695,-14.2295981254736,-9.55433142236507,-0.399562384784844,-24.3195460287809,-3.71172405028374,-4.26658869913611,112.639053390905,-2.06633139351858,4.84993549225122,-11.6878371881684
26.3777396865282,-14.245658987276,-9.04292484519356,-0.825156425408156,-23.8967101336471,-2.55985033860154,-3.65024425187081,113.097979896248,-2.21292123034355,4.49758934041055,-11.392369949923
25.4597196368943,-14.2424971380289,-8.52777210192041,-1.24351524181065,-23.4927011275301,-1.43353979636417,-3.05679752040537,113.501918439377,-2.39181169374073,4.15418850746912,-11.1286432943032
24.5077371336329,-14.2204088239978,-8.00962883207443,-1.65334712736196,-23.1088306376838,-0.335409396303116,-2.48928796241179,113.854599527148,-2.59768419821124,3.81718020896308,-10.8964237309869
23.5296651413928,-14.1798670053094,-7.48917584618788,-2.05340860558372,-22.7461182077333,0.732217132668927,-1.95035797891775,114.159771059181,-2.82530757372888,3.48424688096953,-10.6950653528993
22.5332929483585,-14.1215121244878,-6.96701924200479,-2.44251292355057,-22.4053027737151,1.76732596524988,-1.44223616664862,114.421100580679,-3.06959484009268,3.15334328903932,-10.5235599404529
21.5262407238981,-14.0461410129553,-6.4436921345015,-2.81953850510465,-22.0868584855791,2.76822419291649,-0.966731223431785,114.642092965219,-3.32565050811961,2.82272269519616,-10.3805946039703
20.5158790903375,-13.9546941670154,-5.91965778345343,-3.18343725444505,-21.7910139911776,3.73354548665356,-0.525235631325376,114.826024588069,-3.58880935920115,2.49095386997544,-10.2646134516064
19.5092549656627,-13.8482416315518,-5.39531388716335,-3.53324255418004,-21.5177742484227,4.66225081355959,-0.118737996677008,114.975894143029,-3.85466788662512,2.15693071629254,-10.1738799600352
18.5130248871327,-13.7279677341762,-4.87099779764214,-3.86807676290635,-21.2669439166052,5.55362466513753,0.252157221255621,115.094389500913,-4.11910962782981,1.81987610255977,-10.1065371350454
17.5333969654595,-13.5951549160365,-4.34699239762709,-4.18715799746528,-21.038151398365,6.4072672606278,0.587203928180643,115.183869426526,-4.37832552842064,1.47934125793647,-10.060663096098
16.5760825379827,-13.4511669094877,-3.82353236943969,-4.48980598819677,-20.8308726595423,7.22308316523149,0.886483899934257,115.246358564718,-4.62883030991247,1.13520181972534,-10.0343203172661
15.6462584751138,-13.297431518745,-3.30081058411087,-4.77544681267852,-20.6444540434028,8.00126672943755,1.15037287247453,115.283553862574,-4.86747560868656,0.787651372744324,-10.0255973344579
14.748540929808,-13.135423266297,-2.77898434753845,-5.0436163337789,-20.4781334142567,8.74228472324664,1.37950443450887,115.296840492994,-5.09146044646661,0.437193099319727,-10.032642237302
13.8869710819492,-12.9666461711279,-2.25818126283714,-5.29396219104742,-20.3310591079554,9.44685651306375,1.57473284541011,115.287315356679,-5.29833940080435,0.0846299786518399,-10.0536876831328
13.0650130910192,-12.792616920726,-1.73850451109479,-5.5262442286183,-20.2023063289354,10.1159321135725,1.7370958113366,115.255816331224,-5.48602867165848,-0.268946165846851,-10.0870675116207
12.2855640030414,-12.6148486863644,-1.22003741841877,-5.74033329500966,-20.0908908126144,10.7506684467477,1.86777817691755,115.202955576598,-5.65281008669739,-0.622166602770713,-10.1312253355753
11.5509747392155,-12.4348358113101,-0.702847258665536,-5.93620842144332,-19.9957797617574,11.3524041557662,1.96807742450692,115.129155374561,-5.79733295852555,-0.97339861411567,-10.1847157673083
10.8630805184096,-12.2540395753826,-0.186988324915867,-6.11395246806645,-19.9159002493357,11.9226333440214,2.03937180336069,115.034685163927,-5.91861361383737,-1.32075965687719,-10.2461992273339
10.2232381610144,-12.0738752068835,0.327495625879289,-6.27374640510769,-19.8501454340996,12.4629786255772,2.08309181381866,114.919698627204,-6.01603237071664,-1.66213335324215,-10.3144315713022
9.63236676711974,-11.8957002750149,0.840569400544659,-6.41586245041692,-19.7973790412549,12.9751638772534,2.10069562509307,114.784269880253,-6.08932774811563,-1.99518823299599,-10.3882500254842
9.09098740891318,-11.7208045536788,1.35220468836101,-6.54065630878112,-19.7564386199252,13.4609870782392,2.09364880637872,114.628428007815,-6.13858773361036,-2.31740037409422,-10.466557083129
8.59925695966159,-11.5504014023547,1.86237848466835,-6.64855875876945,-19.7261381136922,13.9222936162467,2.06340851955155,114.452189365726,-6.16423798590145,-2.62608111741101,-10.5483040526467
8.15699130371044,-11.3856206635061,2.37107144788815,-6.74006682169946,-19.7052702786233,14.3609504283676,2.01141208785296,114.255587229479,-6.16702689629843,-2.91841084291717,-10.6324758695149
7.76367425203413,-11.2275030313227,2.87826605026497,-6.815734733578,-19.6926094530339,14.778821322305,1.93906964387341,114.038698506886,-6.14800749125567,-3.19147939171329,-10.7180785977239
7.41845074340982,-11.0769958063487,3.3839444291387,-6.8761649306061,-19.686915121339,15.1777437829263,1.84776038909584,113.80166735211,-6.10851624459127,-3.4423331404366,-10.8041307619047
7.12010628975019,-10.9349499171432,3.88808590250153,-6.92199925672462,-19.6869366251787,15.5595075115962,1.7388318798507,113.544725620756,-6.05014898679534,-3.66802806227847,-10.889659291513
6.86703863438573,-10.8021180657021,4.390664172747,-6.95391060691409,-19.691419270001,15.9258348815742,1.61360169831049,113.268210186494,-5.97473423846228,-3.8656874441913,-10.9737004606386
6.6572312493947,-10.6791538385473,4.8916442971196,-6.97259522251231,-19.699111965379,16.2783634348893,1.47336086549129,112.972577191431,-5.88430444047592,-4.03256236493376,-11.055305804356
6.48824031572706,-10.5666116180448,5.39097954528255,-6.97876584109248,-19.7087764301943,16.6186305041831,1.31937838748007,112.658413323008,-5.781065683894,-4.16609263705726,-11.1335526069863
6.35720610066243,-10.4649471254357,5.88860829024655,-6.97314586730242,-19.719197895817,16.9480600199236,1.1529063793749,112.326444208103,-5.66736662385123,-4.26396570733544,-11.2075582054158
6.26089584904089,-10.3745184272678,6.3844510885004,-6.95646467680063,-19.7291971559745,17.2679515555953,0.975185275987744,111.97754000518,-5.54566726447067,-4.32417099622455,-11.2764970504126
6.19577926730735,-10.2955872425333,6.87840809973533,-6.92945410061044,-19.7376437407984,17.5794716635255,0.787448709773583,111.61271827138,-5.41850822293954,-4.34504732770713,-11.339619246285
6.15813118168797,-10.2283204017855,7.37035697778921,-6.89284606690719,-19.7434699308195,17.8836475538222,0.590927708617393,111.233144190479,-5.28848094374148,-4.32532144630771,-11.3962691706183
6.14415096561078,-10.1727913330605,7.86015133537192,-6.847371305795,-19.7456852721241,18.1813631614671,0.386853934026363,110.84012826834,-5.15819916971557,-4.26413612054009,-11.4459027748047
6.15008614104923,-10.1289814816837,8.34761985009071,-6.79375895657347,-19.7433912078177,18.4733576274504,0.17646174148613,110.435121627128,-5.03027181358751,-4.16106694897081,-11.4881022783916
6.17234829284984,-10.0967816107825,8.83256604234647,-6.73273686373779,-19.735795405684,18.76022618799,-0.0390111018175079,110.019709048856,-4.90727723467243,-4.01612764986242,-11.5225871826506
6.2076122354848,-10.0759929770966,9.31476871972704,-6.66503231302452,-19.7222253379961,19.0424234228186,-0.258324158929615,109.595599928957,-4.79173882437765,-3.82976425954558,-11.5492208230487
6.25289297466053,-10.0663284337805,9.79398305017514,-6.59137294557384,-19.702140656457,19.3202687608177,-0.480236593447349,109.164617304492,-4.68610174530196,-3.60283923406428,-11.5680120247506
6.30559832923854,-10.0674135761378,10.269942200292,-6.51248759819017,-19.6751439043323,19.5939540806642,-0.703510982283187,108.728685125013,-4.59271064972759,-3.33660690229848,-11.5791117739343
6.36355752572284,-10.078788110129,10.7423594573368,-6.42910684847732,-19.6409891214948,19.8635531799895,-0.926918623052456,108.289813939343,-4.51378821626731,-3.03268202992035,-11.5828051283225
6.42502753686671,-10.0999076777829,11.2109307418936,-6.34196308846312,-19.5995879287548,20.129032827418,-1.14924622372343,107.850085178679,-4.45141437786087,-2.69300341940783,-11.5794988404133
6.48867960829261,-10.130146411793,11.6753374078934,-6.25179000058482,-19.5510127268276,20.3902650674048,-1.36930380116476,107.411634226646,-4.40750616264817,-2.31979451246372,-11.5697053513832
6.55356861818462,-10.168800509273,12.135249215016,-6.15932135719965,-19.4954967122779,20.647040423011,-1.585933563202,106.97663248251,-4.38379812804704,-1.91552290261362,-11.5540239344106
6.61908793769797,-10.2150931074278,12.5903273495208,-6.06528910066285,-19.4334304956231,20.8990816348624,-1.79801951042388,106.547268644162,-4.38182343608999,-1.48286052489326,-11.5331198289595
6.68491250669333,-10.2681807099594,13.0402273711927,-5.97042068035188,-19.3653552019347,21.1460575808341,-2.00449747140055,106.125729460178,-4.40289569702258,-1.02464608471907,-11.5077022252808
6.75093300917855,-10.3271613575031,13.484601980273,-5.87543562965063,-19.2919520376212,21.3875970377262,-2.20436527383312,105.714180222246,-4.44809180661091,-0.543851041722154,-11.4785019461291
6.81718433098231,-10.3910846678504,13.9231035251376,-5.78104137049003,-19.2140284145315,21.6233019734028,-2.39669274487799,105.314745287115,-4.51823612797656,-0.0435501849586103,-11.4462496342044
6.88377184334663,-10.4589637999372,14.3553862025466,-5.68792824462145,-19.1325008294686,21.8527600945602,-2.58063121929366,104.929488925169,-4.61388651820862,0.473102490110867,-11.4116551806349
6.95079936996636,-10.5297893233002,14.7811079345789,-5.59676379269565,-19.0483747979028,22.075556416472,-2.75542221512937,104.560396786162,-4.73532286057612,1.00289227777734,-11.3753890190831
7.0183028349988,-10.6025449021273,15.1999319388023,-5.50818633362049,-18.962722231167,22.2912836620877,-2.92040492087722,104.209358251891,-4.88253891637678,1.5425567381822,-11.3380657744594
7.08619344398501,-10.6762246264096,15.6115280360694,-5.42279793452096,-18.8766567283546,22.4995513405379,-3.07502213438269,103.87814991656,-5.05523842951742,2.08879370419379,-11.3002306087908
7.15421375116695,-10.7498517361561,16.0155737570901,-5.34115690259916,-18.7913073330461,22.699993404609,-3.21882431052112,103.568420405985,-5.25283646429834,2.63826528602756,-11.2623484519383
7.22190911416771,-10.8224983846792,16.411755312815,-5.26376997380325,-18.707791384679,22.8922744433933,-3.35147141848918,103.281676722935,-5.47446689679596,3.18759918927908,-11.2247961450637
7.28861590196313,-10.8933059748966,16.7997684869511,-5.19108442200427,-18.6271871744724,23.0760944252737,-3.47273238484098,103.019272291499,-5.71899679912826,3.73338890577837,-11.1878573807223
7.3534665364034,-10.9615054840214,17.1793194929004,-5.12348036577802,-18.550507191,23.2511920642603,-3.58248200620816,102.782396868971,-5.98504817086868,4.27219444559279,-11.1517202231209
7.41541017452063,-11.0264370788455,17.5501258127369,-5.06126359747726,-18.4786727977843,23.4173469395825,-3.68069535445609,102.572068496807,-6.27102712158327,4.80054523636706,-11.1164769464785
7.4732467361692,-11.0875682352545,17.9119170073586,-5.00465928434659,-18.4124912051038,23.5743805529184,-3.76743986086653,102.389127666965,-6.57516023813183,5.31494662618667,-11.0821259243593
