Finger Velocity,Scap_X,Scap_Y,Scap_Z,Shoulder horiz abd-adduction,Shoulder flexion-extension,Shoulder internal-external rotation,elbow flexion-extension,forearm pronation-supination,wrist flexion-extension,wrist radial-ulnar deviation
0.677643291295994,-11.4208653061495,-23.278714978584,7.61422782048395,-16.8058833707545,-42.6037108680562,-9.66980865551055,69.0741333514463,-49.2012957095604,35.1130341033148,-39.6824145759068
0.720038677535676,-11.3785823636264,-23.2734230493032,7.56031463334994,-16.9187383655843,-42.5998477652297,-9.74176564034494,69.2170236258603,-49.2501578484255,35.8589638319866,-40.4832676354227
0.887018113403151,-11.3371092825427,-23.2650026668523,7.50134271840703,-17.030166967681,-42.5926545604449,-9.81555968851685,69.3751892359831,-49.3063203611402,36.5734025979312,-41.2556542635875
1.16576906944739,-11.2965822598175,-23.2530589533831,7.4373794803868,-17.1383071214519,-42.5808832723527,-9.89051249797649,69.5482690138752,-49.3689687295168,37.2489385055359,-41.9915955741136
1.53124772165326,-11.2570525242177,-23.2372039057501,7.36852244904081,-17.2410962589216,-42.5631910425663,-9.96585870965743,69.7356076931091,-49.4370381654032,37.8791494717842,-42.6840151846286
1.96635348103473,-11.2184743369676,-23.2170631714207,7.29489351802695,-17.3362761877249,-42.5381605711465,-10.0407458284926,69.9362408479364,-49.5092159289181,38.4586891926609,-43.3268272194482
2.46118296234883,-11.1806946243157,-23.1922829389624,7.21663267824441,-17.4214030407964,-42.5043231695261,-10.1142354879852,70.1488858129245,-49.5839516128295,38.983320529052,-43.9149723169003
3.00946966250229,-11.1434446484777,-23.1625368188362,7.13389153351735,-17.4938630888649,-42.4601835294506,-10.1853064170364,70.3719391112074,-49.6594759079417,39.4499006314323,-44.4444060838346
3.60648166437089,-11.1063340806343,-23.1275325607925,7.04682689751147,-17.5508950831789,-42.4042451754822,-10.252859468395,70.6034805840961,-49.733827903216,39.856324450634,-44.9120468709148
4.24799553223568,-11.0688477803647,-23.087018421812,6.95559476453558,-17.5896195811395,-42.3350354998185,-10.3157250290404,70.8412840550656,-49.8048904427229,40.2014346367331,-45.315691189271
4.92980580794489,-11.0303455106958,-23.0407889756368,6.86034492202687,-17.6070754108508,-42.2511292809194,-10.3726730473715,71.082834015103,-49.8704325153464,40.484906366752,-45.653905693046
5.64749167529913,-10.9900647288586,-22.9886901509693,6.76121643184283,-17.6002630650113,-42.1511696653573,-10.422425782689,71.3253475190521,-49.9281571505106,40.7071155834609,-45.9259046167404
6.39631281658549,-10.9471264939276,-22.9306233028926,6.65833415592827,-17.5661944061498,-42.0338857429579,-10.4636732197582,71.5658002637543,-49.9757528863566,40.8689986919641,-46.1314210902017
7.17117496587839,-10.9005444289147,-22.8665481562503,6.55180644418804,-17.5019476497326,-41.8981060613049,-10.4950909108018,71.8009557013806,-50.0109466067738,40.9719111213078,-46.2705800307796
7.96663614679713,-10.8492365715983,-22.7964845017502,6.44172404282565,-17.4047262109922,-41.7427676952541,-10.5153598290142,72.0273960379736,-50.0315554365193,41.0174913991921,-46.343779428424
8.77693850859407,-10.792039850502,-22.7205125676533,6.32816022447977,-17.2719196959193,-41.5669207926245,-10.5231876643128,72.2415540790752,-50.0355354510442,41.0075364975396,-46.351585804245
9.59605727821945,-10.7277268355961,-22.6387720296003,6.21117209032183,-17.1011651152453,-41.3697288341664,-10.5173308817313,72.439745101815,-50.0210251986302,40.9438931435798,-46.2946484123148
10.4177615958408,-10.6550243425978,-22.5514596612935,6.090802949046,-16.8904063132269,-41.1504651441253,-10.4966168027884,72.6181982335727,-49.9863824301137,40.8283685774264,-46.1736353968574
11.2356836561235,-10.5726334182266,-22.4588256735152,5.96708563689548,-16.6379496269039,-40.9085064366445,-10.4599649589994,72.773087164296,-49.9302129494828,40.6626629766739,-45.9891937097243
12.0433934492237,-10.4792502020594,-22.361168839342,5.84004660604435,-16.3425139128981,-40.6433243597903,-10.40640700065,72.9005603655862,-49.8513910841414,40.4483245663273,-45.7419332254915
12.8344768745946,-10.3735871483765,-22.2588305555904,5.70971057711078,-16.0032732757374,-40.3544760948901,-10.3351045183097,72.9967712850203,-49.7490718639946,40.1867273186127,-45.4324341762622
13.6026152829637,-10.2543940985286,-22.1521880372411,5.57610552787897,-15.6198910754495,-40.0415950907641,-10.2453642435214,73.0579091837057,-49.622695529578,39.8790700883843,-45.0612757268035
14.3416646885451,-10.1204787204494,-22.041646875704,5.43926777782584,-15.1925440566592,-39.7043829708277,-10.1366502337998,73.0802313560224,-49.4719854079568,39.5263949914018,-44.6290822104539
15.0457330385987,-9.97072587467366,-21.9276332096476,5.29924692971744,-14.7219357135381,-39.3426035497115,-10.0085928118395,73.0600973976271,-49.2969404690255,39.1296218200657,-44.1365823017763
15.7092540597633,-9.80411552136731,-21.8105857599623,5.15611044564269,-14.2092982868666,-38.9560797340941,-9.86099421351769,72.9940059737132,-49.0978239942917,38.6895943534018,-43.5846753235101
16.3270563354419,-9.61973884580813,-21.6909479730578,5.00994766235984,-13.6563830905382,-38.5446938647777,-9.693831089307,72.878634205918,-48.8751497671113,38.2071336348623,-42.9744981096821
16.8944264133104,-9.41681234684003,-21.5691605039203,4.86087308504782,-13.0654391897453,-38.108391796964,-9.50725416946196,72.7108793834398,-48.6296670613048,37.6830927584612,-42.307485510078
17.4071648994855,-9.19468970145397,-21.4456542532327,4.7090288354589,-12.4391807962722,-37.6471907288984,-9.30158550531106,72.4879022629765,-48.3623455067826,37.1184075319491,-41.5854178477292
17.8616346658246,-8.9528712869012,-21.3208441482933,4.55458616819845,-11.7807440975402,-37.1611904931029,-9.07731371624986,72.2071708065826,-48.0743606734782,36.5141377102576,-40.810449542398
18.2548004771924,-8.69101130856405,-21.1951238220116,4.39774600758951,-11.0936345860038,-36.6505877423824,-8.83508762370306,71.8665028685317,-47.7670809405554,35.8714944419805,-39.9851147588182
18.5842595330614,-8.40892254671034,-21.068861298056,4.23873849767014,-10.3816662909213,-36.1156922195176,-8.57570857743789,71.4641061255965,-47.4420559000151,35.1918511865811,-39.1123082854239
18.8482626085583,-8.10657879681012,-20.9423957382079,4.07782159811207,-9.64889461248534,-35.5569441132101,-8.30012169720549,70.9986134769439,-47.1010061908713,34.4767375054416,-38.195242671155
19.0457256696309,-7.78411513269856,-20.8160352579763,3.91527879716586,-8.89954469392003,-34.9749313826943,-8.00940616583602,70.4691122294047,-46.7458143030224,33.7278174683739,-37.237385521216
19.1762320209153,-7.44182616460926,-20.6900557756962,3.75141604760251,-8.13793742508311,-34.3704058828217,-7.70476462261906,69.8751656253244,-46.3785155739379,32.9468564943889,-36.2423832516877
19.2400252186837,-7.08016249119397,-20.5647008313791,3.58655806127957,-7.36841524540713,-33.7442971412503,-7.38751163084819,69.216825641534,-46.0012883708968,32.1356818624156,-35.2139790828632
19.2379931408073,-6.69972555532038,-20.4401822918694,3.42104411975871,-6.59526990076926,-33.0977227305715,-7.05906114271879,68.4946364517304,-45.6164423399995,31.2961426693556,-34.1559333908777
19.1716437472219,-6.30126111018064,-20.3166818429885,3.25522357131974,-5.82267420355937,-32.4319943411127,-6.72091286230208,67.709628453789,-45.2264036311929,30.4300746618297,-33.0719537570855
19.0430731847107,-5.88565148955279,-20.1943531520222,3.08945119130953,-5.05461964584016,-31.7486188901566,-6.37463741070608,66.8633032677334,-44.8336961850726,29.5392742689452,-31.9656403694186
18.8549269863495,-5.4539068583743,-20.0733245620171,2.92408258485646,-4.29486142725577,-31.049294286386,-6.02186022148311,65.9576105599479,-44.4409184823962,28.6254845786311,-30.840450183454
18.6103551867882,-5.00715559962203,-19.9537021544438,2.75946980203515,-3.54687209641107,-30.3358997794077,-5.66424413113201,64.9949179041097,-44.0507155725559,27.6903942337774,-29.699680825787
18.3129622185729,-4.5466339716953,-19.8355729957179,2.59595730320983,-2.81380458871217,-29.6104811309091,-5.3034706728407,63.9779751235845,-43.6657466479767,26.7356485553842,-28.5464729637261
17.9667524716108,-4.07367514812184,-19.7190083746311,2.43387835532305,-2.09846500514209,-28.8752311143163,-4.94122013629093,62.9098746633295,-43.2886488450881,25.7628708498406,-27.3838280459311
17.576072388214,-3.58969773022537,-19.6040668491265,2.27355187830452,-1.40329505392681,-28.1324660575663,-4.57915053989031,61.7940095153601,-42.9219982735496,24.7736909546745,-26.2146371022224
17.1455499313764,-3.09619380527733,-19.4907969544811,2.11527972000815,-0.730363709233178,-27.3845992735289,-4.21887578666611,60.6340300878902,-42.5682694802478,23.7697776456956,-25.0417157169194
16.6800322065368,-2.59471660986538,-19.3792394741226,1.95934432740034,-0.0813673516909172,-26.6341122768708,-3.861943430143,59.4338011929319,-42.2297946503415,22.7528715477746,-23.867840329043
16.1845219407077,-2.08686785337911,-19.2694292245101,1.80600679391819,0.54236255007247,-25.8835246829407,-3.50981263122089,58.1973600656783,-41.9087238592222,21.7248156295676,-22.6957816050742
15.6641134325534,-1.57428476093235,-19.1613963439359,1.655505287562,1.13984528360122,-25.1353636450189,-3.16383301169243,56.9288760588592,-41.6069876434001,20.6875811194704,-21.5283316382917
15.1239284895321,-1.05862690796999,-19.0551670983484,1.50805389201337,1.71043138396741,-24.3921336251666,-2.8252251867097,55.6326124093646,-41.3262630720806,19.643287561035,-20.3683229154327
14.5690527724355,-0.541562938752722,-18.9507642302873,1.36384191096652,2.25377889346962,-23.6562872180263,-2.49506377455115,54.3128902737413,-41.0679443820508,18.5942165198188,-19.2186381082256
14.0044728849019,-0.0247572855422266,-18.8482068877109,1.22303368002409,2.76982647553093,-22.9301976601592,-2.17426362607257,52.9740550816095,-40.8331190928496,17.5428190167604,-18.0822106320136
13.4350144899115,0.490142970136483,-18.7475101829813,1.08576889894962,3.25876441111663,-22.2161335618957,-1.86356988965417,51.6204451603952,-40.6225503550042,16.4917170300485,-16.96201649529
12.8652817237947,1.00152093492443,-18.6486844485808,0.952163454619113,3.72100442809396,-21.5162362947883,-1.56355235106712,50.2563625340804,-40.4366661057824,15.4436993800282,-15.8610582380554
12.2995982297902,1.50780227472772,-18.5517342734098,0.822310669754791,4.15714921488887,-20.832500356143,-1.27460428759034,48.8860457835013,-40.2755554139051,14.4017120745117,-14.78234179444
11.7419502665639,2.0074669618948,-18.4566574195272,0.696282890433091,4.56796235339345,-20.1667569167012,-0.996945867334326,47.5136448674217,-40.1389721868138,13.3688429096637,-13.7288470634152
11.1959325773641,2.49906025767708,-18.3634437280836,0.574133311218075,4.95433928136486,-19.5206606476384,-0.730631914715778,46.14319783383,-40.0263461960492,12.348299981429,-12.7034930008187
10.6646980377896,2.98120280901988,-18.2720741188758,0.455897925878259,5.31727977226114,-18.8956798270434,-0.475563662385917,44.7786093893437,-39.9368011560836,11.343383858806,-11.7090982368195
10.1509125215877,3.45259975734352,-18.1825197749998,0.341597486674268,5.65786230782993,-18.2930896415548,-0.231503939892794,43.4236313300171,-39.8691793769805,10.3574534418436,-10.7483385044074
9.65671689451277,3.91204877429576,-18.0947415955913,0.231239362151277,5.97722061741672,-17.7139685167106,0.0019048682411884,42.0818448612599,-39.8220723093177,9.39388586969763,-9.82370242492026
9.1836984921112,4.35844695744388,-18.0086899978511,0.124819203241525,6.27652256762557,-17.1591972327933,0.225120820232044,40.7566448456475,-39.7938561230764,8.45603124645556,-8.93744742037762
8.73287474998906,4.79079653829883,-17.9243051376523,0.0223223545705508,6.55695150740451,-16.6294605315303,0.43868110413183,39.4512260169958,-39.7827313240994,7.54716343203093,-8.09155773206496
8.30469170348569,5.20820937486686,-17.841517579202,-0.0762750243042913,6.81969010620999,-16.1252509096518,0.643180123352267,38.1685711909072,-39.7867653186824,6.67042862429259,-7.28770666228023
7.89903973058185,5.60991021965325,-17.7602493814714,-0.171005137527557,7.06590666396554,-15.6468743247918,0.839247644575743,36.9114414900869,-39.8039367863451,5.82879379923877,-6.52722511200916
7.51528809465306,5.99523877121578,-17.6804155020901,-0.261908019994202,7.29674381978729,-15.194457589446,1.02752761348925,35.6823685895818,-39.832180705584,5.02499719189739,-5.81107820509196
7.1523385579369,6.36365053396647,-17.6019253716678,-0.349031266704385,7.51330954186547,-14.7679572762594,1.20865817650307,34.4836489731834,-39.8694328914092,4.26150289878837,-5.13985130933142
6.80869670579249,6.71471652841308,-17.524684481647,-0.432429990254086,7.71667024146626,-14.3671699806109,1.38325337305983,33.3173401776501,-39.913672946681,3.54046143079773,-4.51374618922853
6.48255788399472,7.04812191231531,-17.4485958600207,-0.512166966231056,7.90784581720046,-13.9917437770165,1.55188688317587,32.1852589871718,-39.9629646052988,2.86367770285287,-3.93258744348964
6.17190311329149,7.36366359011215,-17.3735613625704,-0.588312917684196,8.08780640229886,-13.6411906812515,1.71507812994036,31.0889815281764,-40.0154925531184,2.23258753819566,-3.39583883613066
5.87459930391387,7.66124690078624,-17.2994827536594,-0.660946879736405,8.25747056228647,-13.3148999171488,1.8732809539131,30.0298452049319,-40.0695949433077,1.64824332212048,-2.90262865855837
5.58849774879463,7.94088148141662,-17.2262625743537,-0.730156577398483,8.41770467886117,-13.0121517970451,2.0268750029953,29.0089524076949,-40.1237909644066,1.11130902672907,-2.45178291645097
5.31152527576696,8.20267640469701,-17.1538048042233,-0.796038742885994,8.56932326082757,-12.7321320459295,2.17615991522265,28.0271759135841,-40.1768029611478,0.622064492836148,-2.04186495247318
5.04176347336904,8.44683468472892,-17.0820153344042,-0.858699289218682,8.71308994207253,-12.4739464118381,2.3213523030097,27.0851658832706,-40.2275727469301,0.180418585870498,-1.67122006304435
4.77751284262139,8.67364723881875,-17.0108022904406,-0.91825324648774,8.84971895401084,-12.2366354006335,2.46258547247474,26.1833583335105,-40.275271889329,-0.214069407619388,-1.3380236730166
4.51734029506259,8.88348638651237,-16.9400762636594,-0.974824366827019,8.97987689134911,-12.0191889594645,2.59991174227248,25.3219849366189,-40.3193059051019,-0.56216103256694,-1.04033164224371
4.26010987088872,9.07679896200608,-16.8697505157683,-1.02854432336117,9.10418462352329,-11.8205609214917,2.73330717626169,24.5010839649498,-40.3593124673377,-0.864903702019325,-0.776131285484464
4.00499772258191,9.25409911166181,-16.7997412125694,-1.07955146379335,9.22321923807194,-11.6396830185411,2.86267851056997,23.720512166363,-40.395153890889,-1.12359085758502,-0.543391709126488
3.75149322355917,9.41596084340738,-16.7299677298525,-1.12798911766981,9.33751593422022,-11.4754782648623,2.98787202263777,22.9799573308235,-40.426904306787,-1.33971875265171,-0.34011210811338
3.49938852323573,9.56301038967847,-16.6603530663614,-1.17400348786945,9.44756981309716,-11.3268735115493,3.10868404813504,22.2789512907583,-40.4548320535546,-1.51494148132956,-0.164366710291249
3.24875903887484,9.69591844210246,-16.5908243954736,-1.21774118069698,9.55383753378572,-11.1928109697688,3.22487280573234,21.6168830891506,-40.4793779061001,-1.65102595420262,-0.0143451039106112
2.99993733651096,9.81539231571086,-16.5213137825981,-1.25934644853744,9.65673882114226,-11.0722585087956,3.33617114906871,20.9930120513973,-40.501129840479,-1.74980851542304,0.111613233490592
2.75348269930091,9.92216810278031,-16.4517590817058,-1.29895823693533,9.75665782362697,-10.9642185601255,3.44229983537643,20.4064805117875,-40.5207950990637,-1.8131547727144,0.214991236377929
2.51014849800241,10.0170028800874,-16.382104999459,-1.33670714515635,9.85394433092298,-10.8677355047547,3.54298088332573,19.8563259743227,-40.5391703686356,-1.84292397878749,0.297074187775196
2.27084934692012,10.1006670371796,-16.3123042844098,-1.37271242540965,9.94891487452781,-10.7819014825879,3.63795059176963,19.341492531155,-40.5571109052908,-1.84093900576871,0.358937821285865
2.03663004121135,10.1739367965549,-16.242318970551,-1.40707915864378,10.0418537489572,-10.7058606313457,3.72697180908005,18.8608414192378,-40.5754994337159,-1.80896265910827,0.401444848817522
1.8086385612443,10.2375869988295,-16.1721215858147,-1.43989575050038,10.1330140034437,-10.6388118272994,3.80984507830168,18.4131606633672,-40.5952156170265,-1.74868083125807,0.425249951871122
1.58810624008529,10.2923842260293,-16.1016962295133,-1.471231886982,10.2226184615172,-10.5800100544876,3.88641833075202,17.9971738258853,-40.6171068405797,-1.66169279528178,0.430813095143922
1.37634002565557,10.3390803331263,-16.0310394292646,-1.50113707530559,10.3108608282019,-10.5287665675953,3.95659485359653,17.6115479523293,-40.6419609855976,-1.54950873959209,0.418420839333212
1.1747357491561,10.3784064521544,-15.9601607086886,-1.5296398721273,10.3979069420055,-10.4844480315172,4.02033931094053,17.2549008600988,-40.6704817930336,-1.41355439925402,0.38821509733289
0.984830029210323,10.4110675261079,-15.8890828301752,-1.55674786994977,10.4838962211148,-10.4464748159903,4.07768165179002,16.9258079579073,-40.7032673377878,-1.25518232267123,0.340228471923171
