Finger Velocity,Scap_X,Scap_Y,Scap_Z,Shoulder horiz abd-adduction,Shoulder flexion-extension,Shoulder internal-external rotation,elbow flexion-extension,forearm pronation-supination,wrist flexion-extension,wrist radial-ulnar deviation
0.994907527610302,-12.5151342992626,-17.6550586115213,2.70616869299838,-17.9659434949868,-41.4158327570695,-9.15955553709118,59.5035186965619,-19.3157687922176,-20.4307903840567,4.61180400857113
1.1378338546547,-12.5352378833396,-17.6460878903723,2.70050975518915,-17.982825535826,-41.4116198145704,-9.15489270531479,59.4848896157754,-19.0525342898176,-21.325433834308,5.67269440483183
1.28652243601131,-12.5559785109668,-17.6361402888955,2.69462932509165,-17.999717110934,-41.4097915377965,-9.14994146883424,59.4655694814864,-18.7774889709247,-22.1872129485139,6.71922641587146
1.4400540043868,-12.57725522766,-17.6252635791585,2.6886373341242,-18.0163580262332,-41.4107213225717,-9.14457810346502,59.4457773199251,-18.4918537721094,-23.0037247787565,7.73896730604308
1.59748722508194,-12.598963380624,-17.6135195836103,2.68264647459462,-18.0324622311584,-41.4147906472392,-9.13864659217028,59.42575248613,-18.1969381950341,-23.7638504307072,8.72052208967092
1.75785635541531,-12.6209971814377,-17.6009841035731,2.67676903373524,-18.0477185178024,-41.4223838194372,-9.13195746974837,59.4057515336691,-17.8941186477861,-24.4580616201569,9.65383040959668
1.920172165651,-12.6432523375145,-17.587746715706,2.67111361337387,-18.061791254135,-41.433882000708,-9.12428743709775,59.3860445691655,-17.584815780228,-25.0786299226874,10.5303718980321
2.08342450793675,-12.6656286671472,-17.5739104513363,2.6657818322973,-18.0743211217648,-41.449656521656,-9.11537977044705,59.3669111215089,-17.2704711071416,-25.6197366343091,11.3432785073532
2.24658562591182,-12.6880326140819,-17.5595913628161,2.66086511178277,-18.0849258489025,-41.4700615226962,-9.10494551825595,59.3486355600337,-16.9525232337952,-26.077490045097,12.0873608710623
2.40861371180812,-12.7103795800658,-17.5449179685541,2.65644164553565,-18.0932009504278,-41.495425980869,-9.09266545284003,59.3315020945084,-16.6323840581625,-26.4498633840828,12.7590618051903
2.5684564814396,-12.7325959968825,-17.5300305586609,2.6525736548008,-18.0987205054803,-41.5260452088962,-9.07819272825727,59.3157893818695,-16.3114154128721,-26.7365703578943,13.3563532755297
2.72505471808353,-12.7546210635888,-17.5150803394412,2.64930502725192,-18.1010380162048,-41.5621719365431,-9.06115618997254,59.3017647529292,-15.9909067112612,-26.9388961586331,13.8785937116555
2.87734586627638,-12.7764080812076,-17.500228397716,2.64665943271831,-18.0996873992536,-41.6040071063283,-9.04116428170556,59.2896780623507,-15.6720542537134,-27.059500549758,14.3263610303536
3.02426785111123,-12.797925326516,-17.4856444730175,2.6446389986008,-18.0941841642866,-41.6516905388321,-9.01780949658421,59.2797551612219,-15.3559429063211,-27.1022069619442,14.7012739930613
3.16476336447587,-12.8191564181172,-17.4715055337302,2.64322361222173,-18.0840268284811,-41.7052916516926,-8.9906733196536,59.272190993975,-15.0435308552111,-27.0717883745392,15.0058114654258
3.29778489972139,-12.8401001405021,-17.457994159537,2.64237089574908,-18.0686986000618,-41.7648004523697,-8.95933160382888,59.2671423294837,-14.7356380467796,-26.973757874818,15.2431364510453
3.42230083205989,-12.8607697046688,-17.4452967364227,2.64201687236396,-18.047669338352,-41.830119063649,-8.9233603103515,59.2647201517755,-14.4329387494267,-26.8141695028764,15.4169297095197
3.53730283514225,-12.8811914372946,-17.4336014734169,2.64207731321978,-18.020397770147,-41.9010540734194,-8.88234153019367,59.2649817618138,-14.1359584419198,-26.5994332365426,15.531236267874
3.64181489711171,-12.9014029049979,-17.4230962539731,2.64244972806333,-17.9863339225887,-41.9773100157149,-8.83586968887908,59.2679226779019,-13.8450749810215,-26.3361465856647,15.5903270287213
3.73490415541269,-12.9214504960721,-17.4139663398879,2.64301594137303,-17.9449217299735,-42.0584842806683,-8.78355782667163,59.2734684644964,-13.5605237549861,-26.030944206752,15.5985768825788
3.81569371333506,-12.9413864987276,-17.4063919510897,2.64364518122557,-17.8956017889595,-42.1440637165851,-8.72504384028483,59.2814666628205,-13.282406312242,-25.6903662374445,15.560360200887
3.88337753823048,-12.961265731599,-17.4005457488707,2.64419759898712,-17.8378142683114,-42.2334231360908,-8.65999657251019,59.2916790377328,-13.0107017862637,-25.3207456497686,15.4799642375065
3.93723747771447,-12.9811417983588,-17.3965902519556,2.64452813295324,-17.771002015533,-42.3258258818622,-8.58812164281962,59.3037743908041,-12.7452803351457,-24.9281147192753,15.3615206793797
3.97666237230401,-13.001063053335,-17.3946752145008,2.64449062623718,-17.6946139337772,-42.4204265530649,-8.50916692252977,59.3173222166151,-12.4859177846324,-24.5181305353642,15.2089552347929
4.00116919678335,-13.0210683787216,-17.3949349950122,2.64394210603977,-17.6081087213508,-42.5162759416793,-8.42292756845702,59.3317874945168,-12.2323106996469,-24.0960191782537,15.0259546483854
4.01042613297796,-13.0411828857054,-17.3974859484405,2.64274712613429,-17.5109590691638,-42.6123281753074,-8.32925053703258,59.3465269079796,-11.9840911957987,-23.6665377365174,14.8159499212214
4.00427746630204,-13.0614136607229,-17.4024238828489,2.64078206700987,-17.402656398102,-42.7074500074745,-8.22803850718273,59.360786766489,-11.7408409221692,-23.2339528750391,14.5821139372727
3.98277020661235,-13.0817456834665,-17.4098216370121,2.63793928047584,-17.2827161907693,-42.8004321385761,-8.11925314681366,59.3737028724968,-11.5021037865158,-22.8020343458459,14.3273712905953
3.94618235378291,-13.1021380448993,-17.4197268520692,2.63413096000353,-17.1506839350333,-42.890002394543,-8.00291766670251,59.384302533026,-11.2673971415191,-22.3740617066097,14.0544179034225
3.8950527433222,-13.1225205914282,-17.4321600226431,2.62929261615555,-17.0061416570601,-42.9748405405188,-7.87911861871345,59.3915088674866,-11.0362212920564,-21.952842517193,13.7657479814473
3.83021238416663,-13.1427911156794,-17.4471129168,2.62338603871339,-16.8487149854996,-43.0535944647914,-7.74800691344173,59.3941475128858,-10.8080673061949,-21.5407403481112,13.4636859170048
3.7528170796553,-13.1628132049176,-17.4645474508689,2.6164016342263,-16.6780806594171,-43.1248974328174,-7.60979805522342,59.3909557746031,-10.5824232097025,-21.1397109964886,13.1504208883891
3.66438080194477,-13.1824148444183,-17.4843950982956,2.60836004024729,-16.493974368892,-43.1873860818238,-7.46477161622043,59.3805942138024,-10.3587787146411,-20.7513453302819,12.8280420942296
3.56680860700459,-13.2013878548852,-17.5065569041852,2.5993129348468,-16.2961987940099,-43.239718804736,-7.31326998951079,59.3616606012089,-10.1366286793788,-20.3769171661488,12.4985727952973
3.46242659089882,-13.2194882215375,-17.5309041687045,2.58934298011582,-16.0846316810344,-43.2805941604405,-7.15569646870427,59.3327061029897,-9.9154755232778,-20.017434539668,12.1640016001591
3.35400418444129,-13.2364373496879,-17.5572798503523,2.57856285921927,-15.859233763961,-43.3087689473052,-6.99251269721063,59.2922535005114,-9.69483082979004,-19.6736926583739,11.8263097149424
3.24476065197806,-13.2519242587987,-17.5855007206994,2.56711338732568,-15.6200563095017,-43.3230755890296,-6.82423551568973,59.2388171843223,-9.47421637549383,-19.3463267648089,11.487493183584
3.13834293255073,-13.265608704945,-17.6153602729188,2.55516069806825,-15.3672480384122,-43.3224385060471,-6.65143321601954,59.1709246049936,-9.25316482660275,-19.0358631259891,11.1495794767121
3.03875663235947,-13.2771252009197,-17.6466323477806,2.54289253048008,-15.1010611587228,-43.3058891804099,-6.47472119117315,59.0871388093869,-9.03122034784945,-18.7427664427581,10.8146381271745
2.95022832824629,-13.2860878842525,-17.6790753979704,2.53051366783055,-14.8218562379539,-43.2725796642183,-6.29475695822769,58.9860816415481,-8.80793936575323,-18.467482135533,10.48478542621
2.8769799517869,-13.2920961658664,-17.7124372728074,2.51824060984064,-14.5301056428987,-43.2217943272941,-6.11223452756029,58.8664571472792,-8.58289171638262,-18.210472184917,10.1621834588052
2.82291103208646,-13.2947410750526,-17.7464603770323,2.50629559227734,-14.2263952905955,-43.1529596852062,-5.92787809344585,58.7270746972419,-8.3556623880048,-17.9722434611884,9.84903395118297
2.791215532554,-13.2936121985993,-17.7808870410131,2.49490010022734,-13.9114244891209,-43.0656521909684,-5.74243502839845,58.566871339939,-8.12585404122071,-17.7533677562743,9.54756751990644
2.78400036543903,-13.2883050921051,-17.8154649339852,2.48426804969035,-13.5860037056034,-42.9596039111082,-5.55666817488699,58.3849329122698,-7.89309045020058,-17.5544930391841,9.26002896126437
2.80200129725015,-13.2784290197411,-17.8499523552815,2.47459883283749,-13.2510501761531,-42.8347060394038,-5.37134744178862,58.1805134656231,-7.65702095706826,-17.3763457936133,8.98865922337082
2.84448287202673,-13.2636148571648,-17.8841232500719,2.46607043300731,-12.9075813559297,-42.6910102300547,-5.18724072749131,57.9530526022455,-7.41732596984386,-17.2197246482173,8.73567467620304
2.90935504504299,-13.2435229745924,-17.9177718147996,2.4588328161199,-12.5567062866203,-42.5287277564593,-5.00510420855509,57.7021903545419,-7.17372346532003,-17.0854858383618,8.50324424018131
2.99346664702624,-13.2178509062287,-17.9507165809251,2.45300179742467,-12.1996150289001,-42.3482265226869,-4.82567205805327,57.4277792770262,-6.92597638219681,-16.9745213107379,8.29346486212929
3.09298634786048,-13.1863406092665,-17.9828038906499,2.44865356892008,-11.8375663685986,-42.1500259744077,-4.64964569745449,57.129893457627,-6.67390070915998,-16.8877305024747,8.10833576646479
3.20377784011724,-13.148785119803,-18.0139107024698,2.44582005560594,-11.4718740558603,-41.9347899772894,-4.47768274173379,56.8088341945729,-6.41737399655945,-16.8259870279526,7.94973189162928
3.32170693030774,-13.1050344232796,-18.0439466870583,2.4444852490391,-11.1038918727391,-41.7033177548867,-4.31038586299758,56.4651321307333,-6.15634396140907,-16.7901017126835,7.81937696091635
3.44285781709182,-13.0550003726346,-18.0728555961909,2.44458264452418,-10.7349978437978,-41.4565330040335,-4.14829186102545,56.0995456924023,-5.89083682096408,-16.7807836061034,7.71881671839811
3.56366471991204,-12.9986605076768,-18.1006159106366,2.4459938832514,-10.3665779091795,-41.1954713327172,-3.99186127876651,55.7130557458555,-5.62096497955715,-16.7986007387853,7.64939295497272
3.6809782589753,-12.9360606540379,-18.1272407969111,2.44854867258742,-10.0000093783409,-40.9212661935245,-3.84146893375315,55.3068564625717,-5.34693370243125,-16.8439424348853,7.61221903475944
3.79208768812693,-12.867316209506,-18.1527774244415,2.45202602728931,-9.63664448274104,-40.6351335164242,-3.6973957551186,54.8823424709417,-5.06904643535941,-16.9169849479376,7.60815769848655
3.89471621984895,-12.7926120592251,-18.1773057101036,2.45615684328416,-9.27779434769896,-40.3383552789378,-3.55982232039087,54.4410924646011,-4.78770846696531,-17.0176620667027,7.63780195941646
3.98700148770224,-12.7122010979696,-18.2009365643114,2.46062778528839,-8.92471370181784,-40.0322622886232,-3.4288244712987,53.9848495305987,-4.50342867824049,-17.1456421513433,7.70145991326634
4.06746869325532,-12.6264013761437,-18.2238097115942,2.46508644037596,-8.57858663312488,-39.7182164894171,-3.30437134877386,53.5154985514149,-4.21681917675977,-17.3003128379455,7.79914426429936
4.13500075497639,-12.5355919255622,-18.2460911486424,2.4691476611749,-8.24051368470372,-39.3975931366036,-3.18632612347346,53.0350411203714,-3.92859266948478,-17.4807744171154,7.93056733331671
4.18880771369244,-12.4402073607585,-18.2679702852299,2.47240099402128,-7.91150055808618,-39.0717632115618,-3.07444961000891,52.5455684847008,-3.6395574895488,-17.6858426441509,8.09514224703207
4.22839644859681,-12.3407313899608,-18.2896567922551,2.47441905921891,-7.59244865693908,-38.742076463439,-2.9684068420042,52.0492330891816,-3.3506102619703,-17.914061444189,8.29199088266509
4.25354112297509,-12.2376894041993,-18.311377161379,2.474766723756,-7.28414765784834,-38.4098454682157,-2.86777655775247,51.5482193352051,-3.06272626935396,-18.1637256072822,8.51995893040889
4.26425448545809,-12.1316403398656,-18.3333709660146,2.47301088294997,-6.98727024637102,-38.0763310846002,-2.77206341504174,51.0447141985015,-2.77694765459032,-18.4329131173508,8.77763813305894
4.26076005015299,-12.0231680264676,-18.3558868068257,2.46873064754816,-6.70236911066508,-37.7427296578644,-2.6807126309568,50.5408783649804,-2.49436966786189,-18.7195262527141,9.06339538802893
4.24346517353338,-11.9128722361386,-18.379177929432,2.46152771710484,-6.4298762389701,-37.4101622744606,-2.59312663521491,50.0388185443221,-2.21612522999087,-19.0213400951329,9.37540799529283
4.21293508185768,-11.8013596459949,-18.4034975185284,2.45103670858865,-6.17010451136931,-37.0796663035643,-2.50868323583843,49.5405615973776,-1.94336814586138,-19.3360566536286,9.71170395020101
4.16986794859339,-11.6892349116736,-18.4290936991784,2.43693520044335,-5.92325150457347,-36.7521893814597,-2.42675472401294,49.0480310609491,-1.6772553600803,-19.6613624899184,10.0702058474003
4.11507115979968,-11.5770920333943,-18.4562043100196,2.41895324626841,-5.68940534612006,-36.4285859046017,-2.34672729248411,48.563026574519,-1.41892869798093,-19.9949875375557,10.4487767086813
4.04943892807503,-11.4655061772434,-18.4850515516013,2.39688210862305,-5.46855237309505,-36.1096159986182,-2.268020111163,48.0872066147938,-1.16949657298723,-20.3347627335761,10.8452658939514
3.97393141881312,-11.3550260961802,-18.5158366509029,2.37058196223976,-5.26058627924358,-35.795946826692,-2.19010339611809,47.6220748302585,-0.930016160821789,-20.6786741233639,11.2575532115126
3.88955553530439,-11.2461672783418,-18.5487347119365,2.33998831921945,-5.06531837919033,-35.488156000945,-2.11251482733361,47.1689701416709,-0.70147653564231,-21.0249112490307,11.6835894114762
3.79734747265147,-11.1394059330581,-18.5838899333576,2.30511694147559,-4.88248858814449,-35.1867367790717,-2.03487372496001,46.729060641471,-0.484783227030871,-21.3719078763473,12.1214314181655
3.69835709679617,-11.0351739050439,-18.6214113634844,2.26606703183357,-4.71177671896941,-34.8921046769976,-1.95689248887337,46.3033411965868,-0.280744588450323,-21.7183734491226,12.56927093302
3.59363413753316,-10.9338545840818,-18.6613693361624,2.22302253359365,-4.55281373576471,-34.6046051073726,-1.87838493395713,45.8926345457639,-0.0900602721579874,-22.0633140891834,13.0254554212077
3.4842161076064,-10.8357798536179,-18.7037926979481,2.17625141521624,-4.40519266224285,-34.3245216553071,-1.79927129459472,45.4975955896757,0.0866880059247083,-22.4060424754676,13.4885009578618
3.37111777934611,-10.7412280996748,-18.7486669066157,2.12610287084956,-4.26847890803506,-34.0520846189549,-1.71957980899225,45.118718500302,0.249043338395695,-22.7461764872086,13.9570968872101
3.25532197246506,-10.6504232816393,-18.7959330564396,2.07300242805548,-4.14221983409959,-33.787479468166,-1.63944491602195,44.7563462230346,0.396678157280294,-23.083627016945,14.430102675319
3.13777133947706,-10.5635350473933,-18.8454878659239,2.01744501658209,-4.02595342375377,-33.5308549060509,-1.55910219787325,44.4106819068091,0.529396519373747,-23.4185758158085,14.9065377076502
3.01936078780942,-10.4806798559846,-18.8971846441914,1.95998611015456,-3.9192159590549,-33.2823302557367,-1.47888028082492,44.0818017716417,0.647134298367958,-23.7514446339767,15.385565130016
2.90093016018074,-10.4019230519286,-18.9508352284797,1.90123110517751,-3.8215486273201,-33.0420019410525,-1.39918997088716,43.7696689100697,0.74995747754549,-24.0828572650254,15.8664711549636
2.78325681792609,-10.3272818170146,-19.0062128558313,1.84182314940451,-3.732503004784,-32.8099488870553,-1.32051096083931,43.4741475223392,0.838058760361101,-24.4135963625531,16.348641496979
2.66704784607532,-10.2567289084014,-19.0630558991365,1.7824296845343,-3.65164539002474,-32.586236731441,-1.24337650724975,43.1950171079193,0.911752718478483,-24.7445570307103,16.8315366972971
2.55293173258524,-10.1901970759835,-19.1210723639002,1.72372802109519,-3.5785599935341,-32.3709208063422,-1.1683565416072,42.9319861788543,0.971469679457784,-25.0766991750831,17.3146680268526
2.4414495711654,-10.1275840381025,-19.1799450100607,1.66639032003704,-3.51285103178189,-32.1640479172216,-1.09603974478671,42.6847051208759,1.01774852638805,-25.4110004413832,17.7975754233699
2.33304609367688,-10.068757883468,-19.2393369361933,1.61106840778793,-3.45414382155942,-31.9656570054741,-1.0270151706671,42.4527779006016,1.05122854651626,-25.7484113020865,18.2798085649495
2.22806113839726,-10.0135627592277,-19.2988974453498,1.55837889090572,-3.40208501977635,-31.7757788266332,-0.961854040750402,42.2357723955017,1.07264042842274,-26.0898135298886,18.760911767695
2.12672247393384,-9.96182470082971,-19.3582680052325,1.50888905208453,-3.35634220015538,-31.5944348025406,-0.901092334712143,42.0332292024633,1.08279646990856,-26.4359829670419,19.2404129783279
2.02914117938672,-9.9133574585175,-19.4170881210808,1.46310399458478,-3.31660299479637,-31.4216352144803,-0.84521476615596,41.8446688566053,1.08258002732616,-26.7875571876396,19.7178167606916
1.93531097307445,-9.86796817711782,-19.4750009569028,1.42145545808981,-3.28257404996752,-31.2573768990025,-0.794640662222082,41.6695974614215,1.07293421862989,-27.1450083773139,20.192600884701
1.84511292887456,-9.82546278937054,-19.5316585673363,1.38429266203199,-3.25398005115404,-31.1016405927831,-0.749712170227175,41.5075107942353,1.05484989021949,-27.5086215457844,20.664215944127
1.75832688253288,-9.78565098896846,-19.5867266341885,1.35187545111705,-3.23056306648616,-30.9543880517316,-0.71068510727044,41.3578970111128,1.0293528704703,-27.8784780551441,21.1320873574929
1.67465050709901,-9.74835065960469,-19.6398886337498,1.3243699297061,-3.21208244245386,-30.8155590492607,-0.677722662915496,41.2202381359892,0.997490557659876,-28.2544443812949,21.5956191187848
1.59372657079521,-9.71339165195315,-19.6908493907123,1.30184668116246,-3.19831545729526,-30.6850683454631,-0.650892068963244,41.094010576707,0.960317923919997,-28.6361660008273,22.0541987245827
1.5151783696605,-9.68061882110007,-19.7393380017427,1.28428157729885,-3.18905889061565,-30.562802714972,-0.630164264909263,40.9786849577694,0.918883056905816,-29.0230662791012,22.5072027807501
1.43865285981215,-9.64989426115562,-19.7851101363765,1.27155909454525,-3.18413160146107,-30.4486181255671,-0.61541650943117,40.8737255897455,0.874212402041276,-29.4143502037464,22.9540028697806
1.36387068883195,-9.62109870097509,-19.827949744335,1.26347797084283,-3.18337812305057,-30.3423371712293,-0.606437813696304,40.7785899090031,0.82729590377403,-29.8090127572539,23.393971340738
1.29068215703004,-9.59413205491418,-19.8676702162777,1.25975896260811,-3.18667318693668,-30.243746879254,-0.602937001156556,40.6927282232564,0.779072270896788,-30.2058516655626,23.8264867745686
1.21912800065103,-9.56891315434539,-19.9041150593095,1.26005439538852,-3.19392699630128,-30.1525970229783,-0.604553134048857,40.6155840910639,0.73041461189675,-30.6034842106417,24.2509389774546
1.14950342453206,-9.54537871714848,-19.9371581587926,1.2639591463431,-3.20509099525419,-30.0685990693526,-0.610867991632701,40.5465956467459,0.68211670610109,-31.0003677588067,24.6667334546552
1.08242231059453,-9.52348164084319,-19.9667037033226,1.2710226540636,-3.22016384166645,-29.9914258680747,-0.621420238792284,40.4851981553748,0.634880194450477,-31.3948236306942,25.0732954090087
1.01887478893703,-9.50318872805361,-19.9926858490921,1.28076152595796,-3.23919728677583,-29.9207121490988,-0.635720885950211,40.4308280445038,0.589302984483224,-31.7850639190185,25.4700733873731
0.96026375141666,-9.48447796974451,-20.0150681929594,1.29267230891816,-3.26230168429863,-29.8560558485859,-0.653269613743328,40.3829286097042,0.545869161816944,-32.1692208402837,25.8565427573036
