Finger Velocity,Scap_X,Scap_Y,Scap_Z,Shoulder horiz abd-adduction,Shoulder flexion-extension,Shoulder internal-external rotation,elbow flexion-extension,forearm pronation-supination,wrist flexion-extension,wrist radial-ulnar deviation
1.67271463994793,-6.87157552551169,-20.0350151453861,5.59737884143449,-23.2494816176073,-43.3108951882448,-12.5288065659455,66.40675221935,-19.8789874536426,4.98617623379951,-24.5631787888477
2.28256982851835,-6.959715162275,-19.98784263432,5.52966180773699,-23.5563625461897,-43.0642632964741,-12.7214573077635,66.652801313442,-19.2841097712383,5.04355806032337,-24.5071397378773
2.97805003346611,-7.05684744260543,-19.9339099188623,5.45461334649834,-23.8791777114029,-42.7869277691749,-12.9222708784248,66.9461785819177,-18.6532734326495,5.10117119669468,-24.438572684987
3.75038591972622,-7.16307326439299,-19.872618254905,5.37231854060167,-24.2158999553968,-42.4770654388335,-13.129917802086,67.2895788271147,-17.9866380770889,5.15364907246584,-24.3526144339098
4.59400701830497,-7.27841242409134,-19.8033947235318,5.28291684233863,-24.564167600456,-42.1329413075026,-13.342852276646,67.6853921904769,-17.2844240841887,5.19607363950998,-24.2450831692466
5.50425590057472,-7.40280031494037,-19.7257042209982,5.18659607258337,-24.921306219364,-41.7529317472783,-13.5593272590618,68.1356723195467,-16.546924449018,5.22416450833243,-24.1126512825635
6.47650566684765,-7.53608581377405,-19.6390610162996,5.08358575888492,-25.2843600839219,-41.3355473119189,-13.7774168399358,68.6421085234321,-15.7745276604079,5.23439956906574,-23.9529397499371
7.50579355409616,-7.67803040773568,-19.543039484607,4.97415009076925,-25.6501332847154,-40.8794544182194,-13.9950455490245,69.2060013910498,-14.9677517220347,5.22407614628013,-23.7645432442372
8.58666928718254,-7.82830859276889,-19.4372836393885,4.85858076258065,-26.0152400777102,-40.3834951035936,-14.2100238264498,69.8282411760484,-14.1272886514459,5.19132464630959,-23.5469985084019
9.71314450634709,-7.98650956411829,-19.3215151123386,4.73718994863438,-26.3761635275494,-39.8467040729605,-14.4200885014837,70.5092881744076,-13.2540579369379,5.13508702358698,-23.3007093458407
10.8786957666757,-8.152140213142,-19.195539271093,4.61030361079624,-26.7293210109784,-39.2683223274444,-14.6229467688099,71.2491543553408,-12.3492665736391,5.05507108252151,-23.0268407730052
12.0762991998284,-8.3246294382921,-19.0592492186905,4.47825528514734,-27.0711346623463,-38.6478068243764,-14.816321880188,72.0473856653056,-11.4144724935738,4.95168949680873,-22.7271932907076
13.2984856518699,-8.50333376411855,-18.9126274798816,4.34138044904877,-27.3981044457219,-37.9848358439898,-14.9979986205722,72.903044707602,-10.4516475123562,4.82599012077513,-22.4040664930495
14.5374099092353,-8.68754423670444,-18.7557452435729,4.20001153726419,-27.706881275422,-37.2793100118915,-15.1658666350995,73.8146938916746,-9.46323540112311,4.67958209976252,-22.0601196703743
15.7849298907104,-8.87649452742406,-18.5887590986904,4.05447364420811,-27.9943375057812,-36.5313492203317,-15.3179598120657,74.7803796194578,-8.45220041634034,4.51456067717425,-21.6982357626069
17.0326928050811,-9.06937013257133,-18.4119052734156,3.90508090951576,-28.257632178695,-35.7412859772851,-15.4524901887375,75.7976185896363,-7.42206164203424,4.33343248772314,-21.3213939165513
18.2722258585797,-9.26531850874782,-18.2254914617506,3.75213354276166,-28.4942686481959,-34.9096559623772,-15.5678752120569,76.8633877986924,-6.3769088755321,4.13904241189993,-20.9325548553555
19.495029424193,-9.46345993764983,-18.029886391462,3.59591541584966,-28.7021425771702,-34.0371867551851,-15.662757631363,77.9741202339575,-5.32139655368064,3.93450257998203,-20.5345621547964
20.6926707924813,-9.66289887425926,-17.825507351433,3.43669214602548,-28.8795787884578,-33.1247858024249,-15.7360177891185,79.1257085218621,-4.26071336444241,3.72312374532404,-20.1300613092148
21.8568767792872,-9.86273550569802,-17.6128059550394,3.27470960198753,-29.0253560030707,-32.1735286969831,-15.786778560314,80.3135188559449,-3.20052665860097,3.50834898400067,-19.7214372465547
22.979623604657,-10.0620772385279,-17.3922524684323,3.11019277836366,-29.1387190610941,-31.1846487579548,-15.8144036244229,81.5324173386105,-2.14690245071568,3.29368955932267,-19.3107698613531
24.0532225972016,-10.2600498383773,-17.1643190756878,2.94334499378104,-29.2193787539494,-30.1595287376592,-15.818490100578,82.7768104028535,-1.10620351323131,3.0826628393541,-18.8998062959052
25.0704004273043,-10.4558079615816,-16.9294624867129,2.77434737478243,-29.2674998707022,-29.0996952515745,-15.7988568140151,84.0407002426591,-0.0849696396747728,2.87873235095105,-18.4899481661628
26.0243727339692,-10.6485448406063,-16.6881063215945,2.60335859279736,-29.2836784575732,-28.0068162470051,-15.7555295777686,85.317755222744,0.910214588869278,2.68525032468144,-18.0822516901719
26.9089101834612,-10.8375009146744,-16.4406237268659,2.43051482523431,-29.2689096000114,-26.882701519571,-15.6887248735575,86.6013941489003,1.87285838894704,2.50540334022489,-17.6774386814375
27.7183961810139,-11.0219712359185,-16.1873206908069,2.25592991693373,-29.2245472588783,-25.7293059805941,-15.598833221359,87.8848821760594,2.79670327718112,2.34216184992732,-17.2759165461615
28.4478756464349,-11.2013115277428,-15.9284205241029,2.07969572734306,-29.1522578278917,-24.548735097091,-15.4864033609249,89.1614351375301,3.67585529069603,2.19823440293372,-16.8778056920557
29.0930944563864,-11.3749428215706,-15.6640499622461,1.90188266203517,-29.053969133091,-23.3432516852844,-15.3521281442102,90.4243283114905,4.50490542305644,2.07602730752406,-16.4829730376517
29.6505293461372,-11.5423546466438,-15.3942273316357,1.72254040211916,-28.9318165782957,-22.1152830497459,-15.1968327669328,91.6670051930393,5.2790338175302,1.97761028329301,-16.0910705457357
30.1174082473129,-11.7031067925322,-15.1188532012624,1.54169885950027,-28.7880880720536,-20.8674273381123,-15.0214656704582,92.8831817711156,5.99409450289202,1.90468842994242,-15.7015778693417
30.4917212114329,-11.8568297050355,-14.8377039096917,1.35936939981576,-28.6251692691654,-19.6024579419673,-14.8270921500439,94.0669421305218,6.64667874375749,1.85858063472682,-15.3138482887381
30.772222228032,-12.0032236143336,-14.5504283098136,1.17554638769896,-28.445490531023,-18.3233248240313,-14.6148904360156,95.2128218652273,7.23415627784328,1.8402043753168,-14.9271571244809
30.9584223876228,-12.1420565298133,-14.2565480179074,0.990209116565059,-28.25147685184,-17.0331517794872,-14.3861497797061,96.3158767075842,7.75469474232219,1.85006674673507,-14.5407517302876
31.0505749610277,-12.2731612665076,-13.9554613987904,0.803324182492224,-28.0455018128163,-15.7352288235227,-14.1422698760355,97.3717348302681,8.20725841067013,1.88826146467414,-14.1539020142645
31.0496530657837,-12.3964316897081,-13.646451466657,0.614848350932871,-27.8298464246246,-14.4329991158551,-13.8847607975165,98.3766323394333,8.59158797034849,1.95447160209575,-13.7659502342924
30.9573206662439,-12.511818375502,-13.3286978206708,0.424731954847737,-27.6066635172737,-13.1300400707857,-13.6152425208774,99.3274324358125,8.90816350730316,2.04797791342722,-13.376358588971
30.7758977063589,-12.6193238874699,-13.001292649068,0.232922858833191,-27.3779481464691,-11.8300385527308,-13.3354431143514,100.221629490271,9.15815318027061,2.16767277107755,-12.9847529052048
30.5083202033696,-12.718997865673,-12.6632607140841,0.0393710207445481,-27.1455143086033,-10.5367603232451,-13.0471947201366,101.057339816802,9.34335030803636,2.31207993615565,-12.5909605418969
30.1580961380082,-12.8109321126958,-12.3135830726264,-0.155966329210112,-26.9109780891088,-9.25401418380583,-12.752426600642,101.83328122419,9.46610176746222,2.47938053905465,-12.1950405343408
29.7292579641908,-12.8952558395444,-11.9512241057386,-0.353118896170891,-26.675747207401,-7.98561153576139,-12.4531547086566,102.54874351169,9.52923069415854,2.66744567868712,-11.7973040554743
29.2263125310714,-12.9721311992262,-11.5751612382282,-0.552096953606291,-26.4410167645763,-6.73532233543373,-12.1514674827123,103.203551987153,9.53595646594515,2.87387591680095,-11.3983235284899
28.6541891656326,-13.0417491909756,-11.1844165411458,-0.752884477153954,-26.2077708484579,-5.5068286402416,-11.8495078469605,103.798025883177,9.48981481214368,3.09604765185239,-10.9989292266322
28.0181866079335,-13.1043259728349,-10.7780892411348,-0.955431887398858,-25.9767895056616,-4.30367710269766,-11.5494516859965,104.332933285232,9.39458062388958,3.33116594984672,-10.6001929203516
27.3239194270379,-13.1600995841948,-10.3553880358383,-1.1596485368013,-25.7486604531846,-3.12923185653288,-11.2534833340805,104.809443911455,9.2541956528587,3.57632294902945,-10.2033989875554
26.5772644767613,-13.2093270555277,-9.91566205308757,-1.36539510669021,-25.5237947772533,-1.98662924886768,-10.9637688308496,105.229080827868,9.07270280347569,3.82856047868309,-9.81000426014419
25.7843078796895,-13.2522818666685,-9.45842930127319,-1.57247612318589,-25.3024457648215,-0.878735813078123,-10.6824278362642,105.593671964063,8.85418818262925,4.08493502973818,-9.42158865100818
24.951292957942,-13.2892517041682,-8.98340153771908,-1.78063285324353,-25.0847299449697,0.191889241577351,-10.411505171803,105.905302123384,8.60273151156406,4.34258268565676,-9.03979929139987
24.0845694617481,-13.3205364603601,-8.49050462033958,-1.98953689233594,-24.8706493910875,1.22302591690071,-10.1529429738947,106.166266057966,8.32236496618041,4.59878116205729,-8.66629153611924
23.1905443830658,-13.3464464107585,-7.97989358600871,-2.19878479322728,-24.6601143504508,2.2128187906695,-9.90855441419037,106.379023092474,8.01704002855233,4.85100591231315,-8.30267066976677
22.2756345812206,-13.3673005034158,-7.45196189758749,-2.40789410268296,-24.4529653217971,3.15979519652321,-9.67999986206138,106.546153717101,7.69060153353964,5.09697750255334,-7.95043823224219
21.346221389691,-13.3834246962497,-6.90734450775678,-2.61630116127232,-24.2489937908305,4.0628758123036,-9.468766244343,106.670318520924,7.3467678040778,5.33469812331423,-7.6109464041446
20.4086073153361,-13.395150286067,-6.34691459293195,-2.8233609765178,-24.0479609566937,4.92137751671658,-9.27615020379663,106.75421979955,6.98911559954317,5.56247600135066,-7.28536294098683
19.4689748798631,-13.4028121813623,-5.77177400693251,-3.0283494101993,-23.8496139368628,5.73500862946651,-9.10324547422425,106.800566146354,6.62106854919941,5.77893741064262,-6.97464797884379
18.5333475833891,-13.406747073592,-5.18323768792473,-3.23046784589148,-23.6536991187656,6.50385687332203,-8.95093467815688,106.812040319248,6.24588778944275,5.98302683558554,-6.67954288235131
17.6075528860188,-13.4072914569553,-4.58281242360632,-3.42885043969764,-23.4599725234861,7.22837057780756,-8.81988552081623,106.791270652971,5.86666364694275,6.17399654687951,-6.40057029699138
16.6971870000097,-13.4047794401449,-3.97217053866961,-3.62257401122468,-23.268207243795,7.90933378358324,-8.71055111710315,106.740806247916,5.48630739274752,6.35138738254927,-6.13804376634056
15.8075811584757,-13.3995402916995,-3.35311921607414,-3.81067059425263,-23.0781981983633,8.54783601486826,-8.62317396723328,106.663096104671,5.10754232849361,6.51500288085908,-5.89208471832664
14.9437688770268,-13.3918956657179,-2.72756630588428,-3.99214260745568,-22.8897645933443,9.14523759043954,-8.55779292522706,106.560472292001,4.73289375175159,6.66487910396044,-5.66264432509416
14.1104535607172,-13.3821564653962,-2.09748362003741,-4.16598048043909,-22.7027505908144,9.70313147228045,-8.51425243058219,106.435137145357,4.36467767069496,6.80125253660789,-5.44952768519247
13.3119756523983,-13.3706193195835,-1.46486885112842,-4.33118236436519,-22.5170247400569,10.2233028059189,-8.49221332361067,106.289154406132,4.00498847197657,6.92452834485421,-5.25241793330666
12.5522784128975,-13.3575626810617,-0.831707353047856,-4.48677532382167,-22.3324787226786,10.7076874373134,-8.49116470778605,106.124444136824,3.65568604752266,7.03525102980884,-5.0708982098883
11.8348714384621,-13.3432426135476,-0.199935034393318,-4.63183723254522,-22.149025892547,11.1583307283833,-8.51043649150454,105.94278118378,3.31838310409413,7.13407911514563,-4.90446987072785
11.1627912562773,-13.3278884122174,0.428596477251457,-4.76551852125746,-21.9665999688672,11.577347908495,-8.54921238810368,105.745796903809,2.99443348145807,7.2217649830047,-4.75256583932966
10.5385589150516,-13.311698278233,1.05215141955008,-4.88706293913157,-21.7851540973129,11.9668870163392,-8.60654325791816,105.534983823875,2.68492230121011,7.29914035659859,-4.61455857537856
9.96413551626086,-13.2948353193373,1.66913747541738,-4.99582656856686,-21.6046603664798,12.3290952431258,-8.68136073451553,105.311702867288,2.39065869261967,7.36710727339504,-4.48976273067447
9.44087815662445,-13.2774241672645,2.2781288485369,-5.09129446108373,-21.4251097758465,12.6660892109609,-8.7724910926984,105.077192756127,2.11217171987842,7.42663377017516,-4.37743315391835
8.96950066414577,-13.2595484900925,2.87788458631909,-5.17309442585037,-21.2465125988709,12.979929435139,-8.87866929834965,104.832581185289,1.84970998390524,7.47875298903987,-4.27675942643871
8.55004545868573,-13.2412496388449,3.46736212171695,-5.24100768057908,-21.0688990621316,13.2725989606256,-8.99855314406603,104.578897353881,1.60324521508402,7.52456408830266,-4.18685848638333
8.18187423479501,-13.2225266106742,4.04572615978129,-5.29497623520314,-20.892320255006,13.5459859734268,-9.13073734433769,104.317085431971,1.37248003662852,7.56523325860841,-4.10676706617172
7.86368516904022,-13.2033374464859,4.61235310579393,-5.33510698738284,-20.7168491808601,13.8018701014363,-9.27376746849201,104.048018538607,1.15685996971517,7.60199330965172,-4.03543560875916
7.5935623397542,-13.183602115503,5.1668312285048,-5.36167255544559,-20.5425818522701,14.0419121348165,-9.42615363739947,103.772512819313,0.955589655293551,7.63614065281374,-3.97172507904336
7.3690588767906,-13.1632068697604,5.70895671825339,-5.37510888893815,-20.3696383192188,14.2676469563891,-9.58638397868882,103.491341245284,0.767653159933455,7.66902895449957,-3.91440772272351
7.18730971199134,-13.1420099716651,6.23872579609657,-5.37600972597729,-20.1981635044161,14.4804794974104,-9.75293789081056,103.205246812854,0.591838098243432,7.70205915882313,-3.86217243161207
7.04516412080935,-13.119848612517,6.75632309288195,-5.36511803151748,-20.0283277067306,14.6816834834683,-9.9242991882148,102.914954894401,0.426763136072243,7.73666590914727,-3.81363501702743
6.93932424182857,-13.0965467651834,7.26210663096148,-5.34331463610591,-19.8603266249696,14.8724026398801,-10.0989691866462,102.621184570215,0.270908244014967,7.77430063627446,-3.76735339633965
6.86647468088847,-13.0719236611548,7.75658985291212,-5.31160437053914,-19.6943807582936,15.0536539540137,-10.275479747284,102.324658841868,0.122646877896651,7.81641176284988,-3.7218474519392
6.82339038911326,-13.0458025503136,8.2404212032055,-5.27110003703811,-19.5307340684429,15.2263325931128,-10.4524062422175,102.026113681367,-0.0197208841137421,7.8644226255447,-3.67562310818582
6.80701443935627,-13.0180193866103,8.71436176904049,-5.22300456895645,-19.3696518491779,15.3912181529962,-10.6283803431053,101.726305905751,-0.157935278663047,7.9197078359534,-3.62719998698113
6.81450270016933,-12.9884310836894,9.17926144964662,-5.16859172038388,-19.2114178350116,15.5489820292452,-10.8021024787343,101.426019892431,-0.293744856059734,7.9835688667254,-3.57514185712688
6.84323732559949,-12.9569230029727,9.63603408455733,-5.10918561044106,-19.0563306793387,15.7001958107507,-10.9723537594584,101.126073176466,-0.428876395436483,8.05720964718763,-3.51808899056784
6.89081452174263,-12.9234153734359,10.0856319545066,-5.04613943533399,-18.9047000209582,15.8453406611053,-11.1380071282159,100.827320998787,-0.565007408761582,8.14171288851071,-3.45479146990584
6.95501390492762,-12.8878683961918,10.5290200795833,-4.98081365922728,-18.7568424170093,15.9848176630489,-11.298037471886,100.530659895328,-0.703741720689919,8.23801775291514,-3.38414244571503
7.0337571040418,-12.8502858562134,10.9671507725877,-4.91455400650667,-18.613077434358,16.1189590578363,-11.4515304189193,100.237030418211,-0.846588454691168,8.34689935858185,-3.30521031605446
7.12506250839062,-12.8107171453801,11.4009389514505,-4.84866960652326,-18.473724158321,16.248040225098,-11.5976895642739,99.9474190573671,-0.994944637661457,8.46895049368822,-3.21726878982134
7.22700170051201,-12.7692576898182,11.8312387592791,-4.78441168599623,-18.3390983096907,16.3722921348406,-11.7358419005341,99.6628593920747,-1.1500815432832,8.6045658185655,-3.11982379065117
7.33766154403989,-12.7260478604054,12.2588220648179,-4.72295325307,-18.2095100767428,16.4919138874952,-11.8654412914455,99.3844324579262,-1.31313480632443,8.75392877444159,-3.0126361584072
7.45511440129853,-12.6812705165539,12.684359400569,-4.66537025147741,-18.0852626831959,16.6070848749603,-11.9860699001315,99.11326627061,-1.48509823834638,8.91700138007151,-2.89573913346756
7.57739769451117,-12.6351473809732,13.1084038324217,-4.61262466347782,-17.9666516342038,16.7179760714328,-12.0974375807666,98.8505344044635,-1.66682115812013,9.09351705853758,-2.76944970005389
7.70250306274063,-12.5879344654951,13.5313781522584,-4.56554999551469,-17.8539645125413,16.8247599985905,-12.199379356248,98.5974534827274,-1.85900893042052,9.28297658178163,-2.63437303595706
7.82837470181196,-12.5399167717775,13.9535656628642,-4.52483949550959,-17.7474811353198,16.9276189857433,-12.2918512203457,98.3552794012518,-2.0622263041421,9.48464716204954,-2.49139954760723
7.95291606479479,-12.491402485247,14.3751046993628,-4.49103734267163,-17.6474738295541,17.0267514402909,-12.3749245966379,98.1253020829937,-2.27690307220411,9.69756468071848,-2.34169421645062
8.07400388631213,-12.4427168721284,14.7959869112253,-4.46453293983728,-17.5542075504152,17.1223759467114,-12.4487798354029,97.9088385529383,-2.50334154860012,9.92053903314342,-2.18667820652519
8.18950841246841,-12.3941960794876,15.2160592154919,-4.44555833944355,-17.4679395594564,17.2147331223825,-12.5136991210913,97.7072241367604,-2.74172536483944,10.1521625590435,-2.02800287994479
8.29731871423536,-12.3461810268755,15.63502922625,-4.4341887547169,-17.3889184069811,17.3040852747723,-12.5700590974689,97.5218016239868,-2.99212911419942,10.3908214817694,-1.86751656583981
8.39537199275513,-12.2990115656199,16.0524738698669,-4.43034604859714,-17.3173820192125,17.3907140194052,-12.6183234073831,97.3539082994098,-3.25452840985676,10.6347101767938,-1.70722466089274
8.48168582111605,-12.2530210676135,16.4678508117792,-4.43380504972304,-17.2535547669746,17.4749161205654,-12.6590352118868,97.2048608357991,-3.5288099755927,10.8818479471884,-1.54924391379714
8.55439229240273,-12.208531587769,16.8805122483152,-4.44420250848528,-17.1976434785239,17.5569979011915,-12.6928096276226,97.0759381527465,-3.81478146017851,11.1300978450859,-1.39575204378198
8.61177305216644,-12.16584972153,17.2897205550819,-4.46104846722401,-17.1498324485284,17.637268636184,-12.7203259281049,96.9683624722315,-4.11218075589564,11.3771869911619,-1.24893413249716
8.6522941861165,-12.1252632520971,17.6946652347782,-4.48373977273019,-17.1102775819738,17.7160333937889,-12.7423193080542,96.8832789331737,-4.42068470058991,11.6207278372354,-1.11092747590808
8.67463991642392,-12.0870386550371,18.0944805785901,-4.51157540964332,-17.0790998880125,17.7935858138919,-12.7595720075932,96.8217342595106,-4.73991714650904,11.8582398892533,-0.983766762777975
8.67774404027585,-12.0514195036092,18.4882634523973,-4.54377328800768,-17.0563785970839,17.8702012982263,-12.7729036212347,96.7846551030926,-5.06945648551587,12.0871715443311,-0.869331537915275
8.66081803042396,-12.018625795632,18.8750906453869,-4.57948808465188,-17.0421442124498,17.946131029581,-12.7831604623705,96.7728267937092,-5.40884282267091,12.3049218774068,-0.76929789041456
