Finger Velocity,Scap_X,Scap_Y,Scap_Z,Shoulder horiz abd-adduction,Shoulder flexion-extension,Shoulder internal-external rotation,elbow flexion-extension,forearm pronation-supination,wrist flexion-extension,wrist radial-ulnar deviation
1.08743376157204,-17.0455124778107,-16.2085371025171,4.9565003594593,-4.12960976808251,-40.9544579136238,-7.05996736183693,52.3431512175857,-27.2318779770547,-3.7286778037738,-7.92726691374065
1.28713432862121,-17.0413235964202,-16.1989629473205,4.95737223114352,-4.16363706063575,-40.9666406675602,-7.09323677044616,52.3167606619439,-27.1517362535517,-4.24961246802273,-7.40233498830135
1.49567251416306,-17.0378435490241,-16.1875565759517,4.9575885302733,-4.1987632411508,-40.982147017405,-7.12801194217889,52.2925648815424,-27.0563166988863,-4.83199908371698,-6.82252491265165
1.71134308975449,-17.0352099822162,-16.1742372018147,4.95705954888873,-4.23457683096126,-41.0009441835292,-7.16405998477001,52.2711680852862,-26.944312320517,-5.47352971813166,-6.19099040012532
1.93231995616728,-17.0335541112326,-16.1589443854749,4.95569849487405,-4.27060864417236,-41.0229239925896,-7.20111149131459,52.2531597896023,-26.814473713655,-6.17045109178921,-5.51232050293224
2.15667074023921,-17.0329964819962,-16.1416406945389,4.95342400111485,-4.30633338210635,-41.0478976655261,-7.23886226492326,52.2390968373504,-26.665631649337,-6.9175765338741,-4.79252434317284
2.38237894292043,-17.0336424964695,-16.1223141205456,4.95016274544942,-4.34117205331919,-41.0755919610729,-7.27697569647125,52.2294845340389,-26.4967200674274,-7.70837272704561,-4.03894275781685
2.60737100998642,-17.0355778032594,-16.1009801774265,4.94585210290394,-4.37449523892607,-41.1056468612364,-7.31508579258987,52.2247574032418,-26.3067990322284,-8.53512559697233,-3.26008217600121
2.82954676387014,-17.0388636775948,-16.0776836055875,4.94044274209121,-4.40562722356325,-41.1376149502815,-7.35280084094142,52.2252601157556,-26.0950771702155,-9.38918256368464,-2.46537299644217
3.04681208696287,-17.0435325341102,-16.0524996101899,4.93390107065747,-4.43385101100436,-41.17096259582,-7.38970768816191,52.2312291825685,-25.8609330827714,-10.2612603384341,-1.66486260897841
3.25711294326748,-17.0495837298326,-16.0255345703867,4.92621143056038,-4.45841423896971,-41.205072991363,-7.42537659225294,52.242776014717,-25.6039352079989,-11.1417997206507,-0.868860822396306
3.45846991225208,-17.0569798219957,-15.9969261652997,4.91737794421539,-4.47853599929406,-41.2392510674687,-7.45936659664499,52.2598719397988,-25.3238595917217,-12.0213427631996,-0.0875614910611901
3.6490124496586,-17.0656434448191,-15.9668428712472,4.90742591859798,-4.49341455704936,-41.2727302258769,-7.49123135816758,52.2823357253413,-25.0207050196803,-12.8909043884364,0.669332578180691
3.82701211416308,-17.0754549597598,-15.9354827951198,4.89640272618522,-4.5022359449787,-41.3046807984706,-7.52052534553901,52.3098240964953,-24.6947049645904,-13.7423107289692,1.39295448162761
3.99091402015113,-17.086251013716,-15.9030718237537,4.88437809858087,-4.50418338743414,-41.3342200811819,-7.54681031064789,52.3418256541685,-24.3463358189868,-14.5684801414534,2.07556441468994
4.13936580208247,-17.0978241096271,-15.8698610895593,4.87144379058438,-4.49844748127414,-41.3604237446318,-7.56966192622355,52.3776585050535,-23.9763209264369,-15.3636293299582,2.71077005299515
4.27124340777017,-17.1099232560445,-15.8361237775248,4.85771259804858,-4.48423703018892,-41.382338381872,-7.58867648297247,52.4164718128076,-23.5856299993704,-16.1233951601624,3.29366680044126
4.38567307705211,-17.1222557200315,-15.8021513266071,4.84331673897155,-4.46079039392926,-41.3989949215923,-7.6034775448604,52.4572513759155,-23.1754736242791,-16.8448712054005,3.82089665479965
4.48204890821062,-17.1344898651702,-15.7682491074195,4.82840563112962,-4.42738717645671,-41.4094226143393,-7.61372246860917,52.498829238025,-22.7472926946401,-17.5265656279989,4.29063154393163
4.56004546586114,-17.1462590171231,-15.7347316846208,4.81314312106582,-4.38336004101566,-41.4126632916278,-7.61910869885288,52.5398972439935,-22.30274275967,-18.1682928022935,4.70249229685841
4.61962493947165,-17.1571662653346,-15.7019177930497,4.79770423984035,-4.32810641054721,-41.4077856046461,-7.61937975061656,52.5790243687733,-21.8436734162046,-18.7710146988473,5.05741757143656
4.66103842012926,-17.1667900819609,-15.6701251696037,4.78227158079688,-4.26109979214492,-41.393898969278,-7.61433078328162,52.6146775635752,-21.3721029969566,-19.3366494486727,5.35749812178252
4.68482092458494,-17.1746906186148,-15.6396653881171,4.76703141154644,-4.18190045500272,-41.370166973264,-7.60381365443142,52.6452457824074,-20.8901889305788,-19.8678639858454,5.60579111384074
4.69177986174695,-17.1804165290157,-15.6108388427113,4.75216964346551,-4.09016519218673,-41.3358200338027,-7.58774132022196,52.6690667716259,-20.4001942848764,-20.3678657083693,5.80612730351989
4.68297671222819,-17.183512161617,-15.5839300167178,4.73786778552719,-3.98565590805547,-41.2901671241023,-7.56609142493032,52.684456124328,-19.9044511680664,-20.840205237644,5.96292132163493
4.65970178468975,-17.1835249695409,-15.5592031593709,4.724299005471,-3.86824679544837,-41.2326064116078,-7.53890889974904,52.6897380178936,-19.4053218527011,-21.2885990995009,6.08099254575375
4.62344203665167,-17.1800129927203,-15.5368984713468,4.71162441197395,-3.73792989834755,-41.162634668136,-7.50630737448795,52.6832769672121,-18.9051586815901,-21.7167779128475,6.16540145338195
4.57584212009695,-17.1725522758043,-15.5172288738835,4.69998965906207,-3.59481889388342,-41.0798553252739,-7.46846920378106,52.6635098454388,-18.4062639792428,-22.1283627618035,6.22130418118732
4.51865905509092,-17.1607440931193,-15.5003774062916,4.68952196037197,-3.43915096881687,-40.9839850608589,-7.42564393088634,52.6289773605656,-17.9108512876686,-22.5267700277028,6.25382636189053
4.45371126921232,-17.1442218580137,-15.4864952658004,4.68032758625494,-3.27128670560621,-40.8748588171002,-7.37814506089749,52.5783541411002,-17.4210092430796,-22.9151431360832,6.26795616119781
4.38282318124829,-17.1226575977879,-15.4757004760167,4.67248989989274,-3.09170792899498,-40.7524331686236,-7.3263450867574,52.5104765854356,-16.9386693004258,-23.2963084141725,6.26845571253264
4.30776705121829,-17.0957678769224,-15.4680771501579,4.66606796869692,-2.90101349764543,-40.6167879786658,-7.27066879726788,52.4243676705653,-16.4655783095504,-23.6727515039401,6.25978975548272
4.23020443200696,-17.0633190513451,-15.4636753049836,4.66109576531688,-2.69991306237646,-40.4681263032237,-7.21158498783016,52.3192579957995,-16.003276683581,-24.0466104714978,6.24607014300056
4.15163016607205,-17.0251317372241,-15.4625111801276,4.65758195114242,-2.489218857655,-40.306772526976,-7.14959678499139,52.1946024517226,-15.553082616952,-24.4196818157792,6.23101490616726
4.0733223550782,-16.9810843818358,-15.4645680219645,4.65551021691225,-2.2698356471351,-40.1331687432339,-7.08523087999312,52.0500920480918,-15.1160825382369,-24.7934359112562,6.21792065893361
3.99630194092343,-16.9311158334817,-15.4697972968461,4.65484014170968,-2.04274900570394,-39.9478694244481,-7.01902604107916,51.8856606000969,-14.6931277369326,-25.1690389230225,6.20964721202278
3.92130532569172,-16.8752268233181,-15.4781203020676,4.65550852362657,-1.80901218585174,-39.7515344685526,-6.95152133495243,51.701486151157,-14.2848368864713,-25.5473788134045,6.20861330494479
3.84877273005818,-16.8134802943132,-15.4894301435397,4.65743113140994,-1.56973187752607,-39.5449207459302,-6.88324452704051,51.4979871908115,-13.8916039977815,-25.9290936302295,6.21680234873579
3.77885375265,-16.7460005405431,-15.5035940486638,4.66050482393573,-1.32605321714065,-39.3288723082922,-6.81470113985268,51.2758138978288,-13.5136111813668,-26.3146007714629,6.23577701645692
3.71142998712392,-16.6729711524967,-15.5204559834326,4.66460998096974,-1.07914442414715,-39.1043094522666,-6.74636462430238,51.0358347937547,-13.1508454762698,-26.7041263464846,6.2667014596816
3.64615283672357,-16.5946317994527,-15.5398395444112,4.66961318338647,-0.830181440841244,-38.8722168561575,-6.67866804058228,50.7791193254809,-12.8031189264313,-27.097734108553,6.31036989963563
3.58249314973325,-16.5112739161019,-15.5615510969061,4.67537007427117,-0.580332928368407,-38.6336310276037,-6.61199755427112,50.5069170033345,-12.4700910526933,-27.4953537129235,6.36724034842435
3.51979825986688,-16.4232353948295,-15.5853831272066,4.681728325449,-0.330745936525377,-38.3896273123464,-6.54668793254848,50.2206338001188,-12.1512928814124,-27.8968082423798,6.43747224271693
3.45735161332657,-16.330894415308,-15.6111177673688,4.68853062896062,-0.0825325219235446,-38.1413067198965,-6.48302008483455,49.9218065620299,-11.8461517371111,-28.301841021503,6.52096680083189
3.39443040519001,-16.234662568016,-15.6385304366141,4.69561763189087,0.163242458511707,-37.8897828200834,-6.42122055071501,49.6120761913977,-11.5540160668885,-28.7101417175537,6.61740894051301
3.33035740111488,-16.1349774472571,-15.6673935281125,4.70283073661619,0.405572201145771,-37.6361689539651,-6.36146271580542,49.2931603364836,-11.2741796229189,-29.1213716220397,6.72630962507577
3.26454417584967,-16.0322949017904,-15.6974800589713,4.71001469674127,0.643517326686853,-37.3815659811223,-6.30386944872454,48.9668262740051,-11.0059043842792,-29.5351878512376,6.84704754218001
3.19652413728509,-15.9270811373472,-15.728567198895,4.7170199520156,0.876213681609488,-37.1270507508757,-6.24851681014944,48.6348646049803,-10.7484416579352,-29.9512660250669,6.97890906066146
3.12597474726968,-15.8198048661519,-15.7604396009412,4.72370466412724,1.10287851887081,-36.8736654385717,-6.19543849096868,48.2990643082935,-10.5010508707972,-30.3693208164487,7.12112546344474
3.05272919152208,-15.7109296957828,-15.792892473698,4.72993643825764,1.32281503976054,-36.6224078367822,-6.14463068116317,47.9611896102439,-10.2630156609805,-30.7891236475681,7.27290653242899
2.97677835331475,-15.6009069441941,-15.8257343517021,4.73559373812217,1.53541531391077,-36.3742226462363,-6.09605713386548,47.6229590348406,-10.0336570049414,-31.2105167773302,7.43346967197791
2.89826432398664,-15.4901690579938,-15.85878953291,4.74056701947023,1.74016163461193,-36.129993782717,-6.04965424855581,47.2860269025975,-9.81234327542551,-31.6334230826949,7.60206389748719
2.81746688257445,-15.379123793987,-15.8919001552851,4.74475961593959,1.93662640958071,-35.8905377073853,-6.00533604058846,46.9519674473908,-9.59849729461998,-32.0578509628148,7.77798817589577
2.73478445224784,-15.268149297352,-15.9249278812944,4.74808841310912,2.12447072614219,-35.6565977932899,-5.96299889161521,46.6222616232136,-9.39160059868278,-32.4838939596467,7.96060378306332
2.65071104508324,-15.1575901737925,-15.9577551548947,4.75048434532575,2.30344175511235,-35.4288397488727,-5.92252599663254,46.298286579627,-9.1911952390094,-32.9117248885383,8.14934054656084
2.56581068063567,-15.0477546096394,-15.9902859960606,4.75189274811813,2.47336916451912,-35.2078481206409,-5.88379144677611,45.9813077040107,-8.9968835021843,-33.3415845256006,8.34369708028376
2.48069073528978,-14.9389125470755,-16.0224463063993,4.75227359621543,2.63416070637025,-34.9941238882431,-5.84666391333677,45.6724730669414,-8.80832593825837,-33.7737652015741,8.5432353803022
2.39597566082646,-14.831294877374,-16.0541836757494,4.75160165056155,2.78579712595508,-34.7880831469014,-5.81100992306707,45.372810063345,-8.62523805597543,-34.208589959874,8.74757041230591
2.31228249925789,-14.725093578952,-16.0854667003267,4.74986652574723,2.92832653115175,-34.5900568477594,-5.77669673344994,45.0832240081198,-8.44738598812289,-34.6463882066108,8.95635555832452
2.23019959980292,-14.620462701407,-16.1162838427778,4.74707267449933,3.06185835137426,-34.4002915420696,-5.74359482932326,44.8044984138876,-8.2745813690921,-35.0874690074417,9.16926499978248
2.15026988400281,-14.5175200801448,-16.1466418797907,4.74323927376364,3.18655701022276,-34.2189510567458,-5.71158007299171,44.5372966521123,-8.10667561808072,-35.5320933711017,9.38597428510112
2.07297986997935,-14.4163496561092,-16.1765639937195,4.73839999175166,3.30263542924147,-34.0461190189551,-5.68053555120583,44.2821646840115,-7.94355379493744,-35.9804469674869,9.60614042852838
1.99875541970464,-14.3170042698377,-16.2060875733463,4.73260261743754,3.41034847126296,-33.8818021435288,-5.65035317047546,44.0395345502647,-7.78512819219931,-36.4326147125383,9.82938287856163
1.92796478523234,-14.2195087986169,-16.235261796732,4.72590854091802,3.50998642251303,-33.7259341963603,-5.62093504911453,43.8097283308587,-7.63133184151079,-36.8885585079381,10.0552665801741
1.8609289895985,-14.1238635110388,-16.2641450747655,4.7183920816517,3.60186860501852,-33.5783805491183,-5.59219473580939,43.5929623269824,-7.48211213419801,-37.3480991896096,10.2832881671667
1.7979388966872,-14.030047525832,-16.2928024353324,4.71013966894328,3.6863372049311,-33.4389432446923,-5.56405825587806,43.3893512695125,-7.33742476722465,-37.8109034562278,10.5128660901571
1.73927753563117,-13.9380222812356,-16.3213029243616,4.70124888335211,3.76375139691834,-33.3073664968971,-5.53646496157512,43.1989124148135,-7.19722821267766,-38.2764762434562,10.7433352274836
1.6852454010591,-13.8477349451654,-16.349717092349,4.69182736924872,3.83448183778096,-33.1833425511957,-5.50936815478116,43.0215694419136,-7.06147886883091,-38.74415870595,10.9739462525208
1.63618561621884,-13.7591217207397,-16.3781146243934,4.68199162869199,3.89890559109477,-33.0665178362077,-5.48273546193547,42.8571561139043,-6.93012699353849,-39.2131316858405,11.20386975502
1.59250510642407,-13.6721110217129,-16.4065621590332,4.6718657057012,3.9574015274021,-32.9564993395005,-5.45654896406948,42.7054197114702,-6.80311346338287,-39.6824242785741,11.4322048434342
1.55468741188368,-13.5866265051927,-16.4351213272815,4.66157976853217,4.01034622304892,-32.8528611459383,-5.43080510843227,42.5660242868991,-6.68036736131458,-40.1509268447634,11.6579916983921
1.52329267528015,-13.5025899545482,-16.4638470297927,4.651268597589,4.0581103588008,-32.7551510821183,-5.40551444568216,42.4385538188032,-6.56180437650177,-40.6174075860428,11.8802273342082
1.49894097064942,-13.4199240052026,-16.4927859592559,4.64106998953467,4.1010556004034,-32.6628974145607,-5.38070124470661,42.3225153679823,-6.44732599232615,-41.0805316608018,12.0978836990015
1.48227684079043,-13.3385547022574,-16.5219753691663,4.63112309273343,4.13953193083789,-32.5756155501176,-5.35640303293325,42.2173423448394,-6.33681942805737,-41.5388817944873,12.3099272230224
1.47391588497101,-13.2584138737238,-16.5514420895971,4.62156669199317,4.1738754008691,-32.492814684065,-5.33267009155888,42.1223980036116,-6.23015828331472,-41.9909794156563,12.5153389847989
1.47437824157866,-13.1794412978487,-16.5812017928329,4.61253745924172,4.20440626927291,-32.4140043380419,-5.30956490541955,42.0369792833895,-6.12720381749141,-42.435305478189,12.7131347681562
1.48401788017863,-13.1015866377474,-16.6112585126681,4.60416818198111,4.23142751074968,-32.3387007312755,-5.28716153529127,41.960321122809,-6.02780678209526,-42.8703202924012,12.9023844125685
1.50295917718121,-13.024811111378,-16.6416044189271,4.59658597629963,4.25522367197698,-32.266432935015,-5.26554485604722,41.8916013833827,-5.9318097101139,-43.2944818896495,13.0822300133552
1.53105179723892,-12.9490888613086,-16.6722198447603,4.58991048898795,4.27606005410969,-32.1967487679779,-5.24480959120101,41.8299465236019,-5.83904955266574,-43.7062626860927,13.2519026975723
1.56785102913584,-12.8744079896301,-16.7030735608777,4.5842520950409,4.2941821983125,-32.1292203972814,-5.22505907131412,41.7744381722587,-5.74936054609205,-44.1041644682615,13.4107378609864
1.61262467113311,-12.8007712314918,-16.7341232888301,4.57971010225771,4.30981565485922,-32.0634496164784,-5.2064036508659,41.7241207566465,-5.66257719999715,-44.4867319601112,13.558188873539
1.66438167822504,-12.7281962570526,-16.7653164434259,4.57637098373493,4.32316602678864,-31.9990727829583,-5.1889587405812,41.6780103490784,-5.57853731806081,-44.852565413134,13.6938393288874
1.72191418509475,-12.6567156143744,-16.7965910906939,4.5743066717661,4.33441929169202,-31.935765410513,-5.1728424516667,41.6351048989918,-5.49708499021833,-45.2003327628101,13.8174139276597
1.78384397128173,-12.5863763497915,-16.8278771024758,4.57357296114383,4.34374241263697,-31.873246422931,-5.15817289559021,41.5943960104311,-5.41807351804956,-45.5287819126694,13.9287880579183
1.84866627487187,-12.5172393609269,-16.8590974841388,4.57420808222297,4.35128424530763,-31.8112820715854,-5.14506522279487,41.5548823988047,-5.34136825021707,-45.8367536609135,14.027996090436
1.91478674071078,-12.4493785465694,-16.8901698508045,4.57623151086908,4.35717673236109,-31.7496894985432,-5.13362850743691,41.5155851130441,-5.26684930965576,-46.1231956974242,14.1152383551698
1.98055001938597,-12.382879817918,-16.921008030234,4.5796430821125,4.36153635367786,-31.6883398905504,-5.123962594674,41.4755645415615,-5.19441418868109,-46.387177979005,14.1908867105022
2.04426049194139,-12.3178400314322,-16.9515237745371,4.58442246716748,4.36446578071555,-31.6271611292036,-5.11615502790499,41.4339391384383,-5.12398017525496,-46.6279096339228,14.2554885552632
2.10419668899105,-12.2543658981687,-16.9816285648718,4.59052906098904,4.36605566858912,-31.5661398095047,-5.11027816869941,41.3899057163065,-5.05548656067635,-46.8447573567854,14.3097690688973
2.15862140052536,-12.1925729181878,-17.011235491646,4.59790231247302,4.3663865096116,-31.505322478621,-5.1063866116368,41.3427610595238,-4.98889657561251,-47.0372650497334,14.3546314069365
2.20578950933916,-12.1325843792151,-17.0402611884613,4.60646251399784,4.36553046491172,-31.4448159396068,-5.10451497842997,41.2919245199228,-4.92419901591316,-47.2051742648661,14.3911545315975
2.24395546189693,-12.0745304448336,-17.0686277928951,4.61611205152672,4.36355308740924,-31.3847864692066,-5.10467614994125,41.2369611714484,-4.86140955435798,-47.3484448108117,14.4205883169226
2.2713821820221,-12.0185473405075,-17.0962649011801,4.62673710065768,4.36051485224184,-31.3254578136912,-5.10685996355543,41.1776050219368,-4.80057178146127,-47.4672746976054,14.4443455329976
2.28635325177983,-11.9647766293882,-17.1231114754537,4.63820973883262,4.3564724199843,-31.2671078525757,-5.11103237318256,41.1137817121831,-4.74175806091932,-47.5621184063217,14.4639902943007
2.28719043662424,-11.9133645580858,-17.149117651163,4.65039043041571,4.35147957206629,-31.2100638568414,-5.11713504708284,41.0456300768929,-4.68507030772505,-47.6337022943932,14.4812225690486
2.27227926579011,-11.8644614479929,-17.1742463797909,4.66313082881454,4.34558777577558,-31.1546963136281,-5.12508536837807,40.9735219019357,-4.63064079435183,-47.6830358095335,14.4978584003516
2.24010665814298,-11.8182211104184,-17.1984748303169,4.67627682713774,4.33884635785148,-31.1014113396843,-5.13477680347851,40.8980791896991,-4.5786330665619,-47.7114171188385,14.5158055895088
2.18931702374892,-11.7748002713464,-17.2217954637019,4.68967177647515,4.33130228898298,-31.0506417573832,-5.14607961117733,40.8201882412492,-4.52924301128016,-47.72043179869,14.5370347373534
2.11879791301537,-11.7343580005469,-17.244216690214,4.70315978043907,4.32299960313313,-31.002836956202,-5.15884187592757,40.7410098822236,-4.48270007056591,-47.7119434000028,14.5635457321182
2.02781528612105,-11.6970551471183,-17.2657630214364,4.71658896779515,4.31397849353311,-30.9584517061339,-5.17289085893388,40.6619851993691,-4.43926854477683,-47.6880750129304,14.5973300132961
1.91623641916571,-11.663053787841,-17.2864746385142,4.72981464287328,4.30427414225752,-30.9179341256649,-5.18803466693773,40.5848362161365,-4.39924887976846,-47.6511814006336,14.6403292293403
1.78491521173551,-11.6325166955026,-17.3064063155506,4.7427022163147,4.29391535404957,-30.8817130359035,-5.20406423974395,40.5115610207742,-4.36297878851812,-47.6038118296337,14.6943912324079
