Finger Velocity,Scap_X,Scap_Y,Scap_Z,Shoulder horiz abd-adduction,Shoulder flexion-extension,Shoulder internal-external rotation,elbow flexion-extension,forearm pronation-supination,wrist flexion-extension,wrist radial-ulnar deviation
2.43379864655915,-22.1822018346985,-15.5395063333015,3.84403259117639,-5.65171408649728,-40.7117909090153,-9.14395872254838,50.1213719962601,-26.9760128250091,10.5305197629398,-12.1412835872768
3.01981503005842,-22.2067657695031,-15.5235740849335,3.83975024889969,-5.62815257073711,-40.6100722029548,-9.15180999412903,50.3561081813178,-26.7461254174198,11.2842718061357,-12.8883308753066
3.68056733267944,-22.2335401452385,-15.5065331835542,3.83399411151708,-5.6069338715829,-40.4912578322502,-9.15669411716806,50.6350277452853,-26.477663459576,12.0189096514633,-13.6075802671237
4.41119050866459,-22.2627511152657,-15.4880920178852,3.82666743360477,-5.58848960004117,-40.3534341472876,-9.15864184867955,50.9607556189539,-26.1676941115258,12.7291967954532,-14.2923739269702
5.20760558760779,-22.2946386310925,-15.4679316892611,3.81766993737541,-5.57315235221469,-40.1946628099903,-9.157673703989,51.3356438167398,-25.8134394780699,13.4106565328842,-14.9370170337357
6.06590453064402,-22.3294528085949,-15.4457099273954,3.80689799618511,-5.56113630725787,-40.0130034737436,-9.15378981963935,51.7617446431195,-25.4122988245033,14.0596101590307,-15.5368569632174
6.98201134437835,-22.3674496128599,-15.4210654236533,3.79424497364853,-5.55251987365245,-39.8065378366672,-9.1469602926751,52.2407886496866,-24.9618703922261,14.6731731616639,-16.0883098509213
7.95150013033951,-22.4088859077003,-15.3936224284647,3.77960173000448,-5.54723113483725,-39.573394720092,-9.1371165736363,52.774166981261,-24.4599740924628,15.2492182776402,-16.5888417659933
8.96950409593662,-22.4540139327231,-15.3629954556472,3.76285729758984,-5.54503680403867,-39.3117757973984,-9.12414448116303,53.3629175629433,-23.9046763413108,15.786315482445,-17.0369134882394
10.0306799433572,-22.5030752904765,-15.3287939383858,3.74389971689353,-5.54553531357795,-39.0199815744212,-9.10787935370464,54.0077144444174,-23.2943182178636,16.2836586142147,-17.4318981385329
11.1292080716271,-22.5562945484969,-15.2906266862638,3.72261701351721,-5.54815453402009,-38.6964372049156,-9.08810376022273,54.7088595394348,-22.6275479851286,16.7409868507169,-17.7739800858877
12.2588173786477,-22.6138725843093,-15.2481059990227,3.69889828470919,-5.55215444646597,-38.3397177148233,-9.06454806620734,55.4662759851297,-21.9033587933329,17.1585071759454,-18.0640421305663
13.4128278481467,-22.6759798234053,-15.2008513019448,3.67263485435005,-5.55663488694066,-37.948572205436,-9.03689400658725,56.2795024071517,-21.1211320627471,17.5368217780021,-18.3035463939285
14.5842064589686,-22.7427495388589,-15.1484921818169,3.64372145133859,-5.56054826125517,-37.5219466038756,-9.00478126500766,57.1476875194588,-20.2806865973805,17.8768623785674,-18.494412970036
15.7656332317465,-22.8142713941708,-15.0906707226979,3.61205737120225,-5.56271691141884,-37.05900452626,-8.96781690862554,58.0695847115569,-19.3823328916497,18.1798320136798,-18.6388994021471
16.9495749315537,-22.8905854154592,-15.0270430672306,3.57754759408288,-5.56185461918856,-36.5591458157899,-8.92558738572459,59.0435465748135,-18.4269313434499,18.447153822237,-18.7394834898973
18.1283643390202,-22.9716765735832,-14.9572801602739,3.54010385051548,-5.55659157215707,-36.0220223216032,-8.87767266491459,60.0675196835533,-17.4159521848873,18.6804258951437,-18.7987517509911
19.2942832298411,-23.0574701416293,-14.8810676647632,3.49964564482068,-5.54550200007946,-35.4475505017644,-8.82366198353476,61.1390403575,-16.3515339311382,18.8813810779075,-18.8192959313236
20.4396473432408,-23.1478279702167,-14.7981050741561,3.45610125973294,-5.52713361555214,-34.835920467446,-8.76317058297839,62.2552325556565,-15.2365361199712,19.0518506822408,-18.8036201351387
21.55689171903,-23.2425457945454,-14.7081040829536,3.40940877074156,-5.50003796028277,-34.1876011347023,-8.69585674331919,63.4128094392488,-14.0745812073407,19.1937312451374,-18.754061288491
22.6386548665318,-23.3413516559993,-14.6107863164052,3.35951709104371,-5.46280075875795,-33.5033412182616,-8.62143839120745,64.6080804364507,-12.870079873441,19.3089536885573,-18.6727256256231
23.6778603119716,-23.4439054912073,-14.5058805575965,3.30638704687053,-5.414071408186,-32.7841658951868,-8.53970854515613,65.8369657867795,-11.6282338684886,19.3994544174225,-18.5614436065298
24.6677941624781,-23.5497999153343,-14.3931196374968,3.24999245220564,-5.35259078520885,-32.0313690876014,-8.4505488841218,67.0950204863277,-10.3550110557401,19.4671480359721,-18.4217450979811
25.602177429141,-23.6585622029718,-14.2722371684086,3.19032112154867,-5.27721662916036,-31.2465014542278,-8.35394078536681,68.3774692582048,-9.05708859267724,19.5139014923822,-18.2548557942106
26.475231970528,-23.7696574461258,-14.1429643067085,3.12737574074529,-5.18694587120808,-30.4313543234259,-8.24997328282378,69.6792536216908,-7.7417622276587,19.5415096060384,-18.0617147656741
27.2817390518597,-23.8824928443917,-14.0050267294108,3.06117451474536,-5.08093341465513,-29.5879399324427,-8.13884754752587,70.9950913491004,-6.41682234520904,19.5516720780491,-17.8430117784133
28.017089662691,-23.9964230618257,-13.858141998742,2.9917515258248,-4.95850702270916,-28.718468455108,-8.02087767625956,72.3195476408907,-5.09040039645781,19.5459721973852,-17.5992417322717
28.6773258956236,-24.1107565711703,-13.702017467752,2.91915676099473,-4.81917812259447,-27.825322402301,-7.89648777315796,73.647116310345,-3.77079231686858,19.5258575298371,-17.3307723758471
29.2591728578886,-24.224762895566,-13.5363488529417,2.84345579668063,-4.6626484787282,-26.9110290586348,-7.76620549639546,74.9723082635918,-2.46626802381629,19.4926229619736,-17.0379205363362
29.7600607637952,-24.3376806444756,-13.3608195763906,2.76472915568986,-4.48881281715651,-25.9782316627163,-7.63065239716122,76.2897437108901,-1.18487769757854,19.4473966079803,-16.7210315818518
30.1781370360027,-24.4487262207488,-13.1751009664658,2.68307137153578,-4.29775759718181,-25.0296600394879,-7.49053149156648,77.5942439651675,0.0657339957828352,19.3911292547449,-16.3805567684551
30.5122684241515,-24.5571030495711,-12.9788534027393,2.59858980864955,-4.08975622647993,-24.0681013539913,-7.34661258186101,78.8809184598709,1.27849535729032,19.3245881544312,-16.0171234975634
30.7620333273627,-24.6620111509326,-12.7717284903913,2.51140329769055,-3.86526110480704,-23.0963715874179,-7.19971589040614,80.1452427898144,2.44704826114848,19.2483560070926,-15.6315942510696
30.9277046792971,-24.7626568533435,-12.5533723412454,2.42164065646656,-3.62489295480422,-22.1172882527618,-7.05069459548994,81.3831241309821,3.56585601030472,19.1628358699767,-15.2251109813809
31.0102239177874,-24.8582624376753,-12.3234300140923,2.32943917986515,-3.36942794904531,-21.1336447787053,-6.90041686676744,82.5909512627341,4.63027550129987,19.0682624808582,-14.7991229024326
31.0111667125924,-24.9480755107217,-12.0815511258746,2.23494319491638,-3.09978316526659,-20.1481868987815,-6.74974799240734,83.765627493899,5.63659365671248,18.9647201105344,-14.3553968467755
30.9327012619055,-25.0313779345547,-11.8273965940652,2.13830278436598,-2.81700089494863,-19.1635912891083,-6.59953316805119,84.9045859559802,6.58203057921996,18.8521665983874,-13.8960105205483
30.7775400884071,-25.1074941719089,-11.5606464156646,2.03967277716603,-2.52223229460447,-18.1824466078857,-6.45058147375535,86.005787845219,7.46471374750304,18.7304627225977,-13.4233300160531
30.5488863667343,-25.1757989424161,-11.2810083335899,1.93921208443986,-2.21672080856652,-17.2072370115305,-6.30365149625211,87.0677051637523,8.28362871286557,18.5994055780096,-12.9399737691632
30.2503758943674,-25.2357241161036,-10.988227190347,1.8370834284027,-1.9017857153961,-16.2403281595357,-6.15943896370863,88.0892902548694,9.03855219339441,18.4587642486601,-12.4487657415538
29.8860158755312,-25.2867647998281,-10.6820947264909,1.73345347584532,-1.57880606689857,-15.28395567041,-6.01856665670611,89.0699349119621,9.7299733202183,18.3083158193776,-11.9526809546786
29.4601217215221,-25.3284846008702,-10.362459552463,1.62849335317806,-1.24920520662131,-14.3402159486143,-5.88157675174813,90.0094220627928,10.359008232985,18.1478796946559,-11.4547866088382
28.9772530799681,-25.3605200777761,-10.0292370099222,1.52237949134153,-0.914435979771593,-13.4110592623666,-5.7489256502357,90.9078730150772,10.9273124154705,17.9773482850486,-10.9581819051469
28.4421502893008,-25.3825844058484,-9.6824186412931,1.4152947268757,-0.575966685151345,-12.4982849140907,-5.62098125022535,91.7656930407723,11.4369942511578,17.7967123684944,-10.4659393830317
27.8596724129483,-25.3944702891317,-9.32208099740465,1.30742956583272,-0.235267776922245,-11.6035383140995,-5.49802253021405,92.5835177295681,11.8905323739344,17.6060798070252,-9.98105013431654
27.2347379406058,-25.3960521438587,-8.94839352454438,1.19898349648573,0.106200699201905,-10.7283097497534,-5.38024123606407,93.3621621106155,12.2906985652815,17.4056867554355,-9.50637470588824
26.572269152054,-25.387287565653,-8.56162528063237,1.09016621951572,0.44700095648051,-9.87393463725802,-5.26774540472217,94.1025740711257,12.6404872465859,17.1959009875985,-9.0446009105612
25.8771410235451,-25.3682180790752,-8.16215023954556,0.981198661017118,0.785728617786304,-9.04159504575784,-5.16056443413177,94.8057931271851,12.9430520490098,16.9772174354941,-8.5982091894718
25.1541354195517,-25.3389691562021,-7.75045095943817,0.872313649441869,1.12102316498507,-8.23232228888642,-5.05865541745528,95.472915154786,13.2016495149379,16.7502464420601,-8.16944566507187
24.4079011561879,-25.299749483586,-7.32712041809659,0.763756166574891,1.45157767167995,-7.44700038967382,-4.96191048643003,96.1050632913426,13.4195896842727,16.5156955539588,-7.76030262854295
23.6429203501236,-25.2508494560281,-6.89286185435337,0.655783113319847,1.77614779573992,-6.68637024525693,-4.87016493707275,96.7033648859066,13.60019312327,16.2743459350051,-7.3725059280129
22.8634812824321,-25.1926388791602,-6.44848649761679,0.548662553480691,2.09356000450319,-5.95103434615514,-4.78320593151148,97.2689341155392,13.7467538347019,16.0270246892566,-7.00750854980877
22.0736578154368,-25.1255638658288,-5.99490911858968,0.442672406921788,2.40271900089077,-5.24146193174763,-4.70078157634015,97.8028596939135,13.8625074236938,15.7745745581886,-6.66648959025188
21.2772952078936,-25.0501429111014,-5.53314139412396,0.338098559867619,2.70261430840555,-4.55799448137519,-4.62261016956795,98.3061969715867,13.9506038724546,15.5178225865265,-6.35035777968508
20.4780019859875,-24.9669621299283,-5.06428314519268,0.235232358807573,2.9923259582259,-3.90085144939005,-4.54838939644158,98.7799636590397,14.0140842937495,15.257549407478,-6.05975873170831
19.6791473511848,-24.8766696451351,-4.58951157335629,0.134367473121076,3.2710292075453,-3.27013615897074,-4.47780525824371,99.2251383848896,14.0558610809672,14.9944607623381,-5.79508514422474
18.8838634475548,-24.7799691256595,-4.11006868142944,0.0357961562392038,3.53799821134662,-2.66584178159819,-4.41054054765604,99.6426613239022,14.0787009433022,14.7291627493519,-5.55648927000913
18.0950516769988,-24.6776124977327,-3.62724711414734,-0.0601950057179503,3.79260857563429,-2.08785735133145,-4.34628273071854,100.033436185822,14.0852103994519,14.462142115631,-5.34389709033498
17.3153921464273,-24.5703918829245,-3.14237469496904,-0.153329717561488,4.03433874045439,-1.53597379290158,-4.28473113796924,100.398332941433,14.0778233963423,14.1937526804341,-5.15702374507322
16.5473552607907,-24.4591308501647,-2.65679796943608,-0.243346804146584,4.26277017087043,-1.00988997215491,-4.22560338957349,100.738190770594,14.0587908160848,13.9242087081459,-4.99538987781155
15.7932144431723,-24.3446750977294,-2.17186509646916,-0.330005075154867,4.47758636520237,-0.50921879860063,-4.16864098209338,101.053820840029,14.0301717303198,13.6535857311691,-4.85833863495655
15.0550589696926,-24.2278827038578,-1.68890845695594,-0.413088060679243,4.67857071710052,-0.033493418271546,-4.11361396284916,101.34600864723,13.993826353231,13.3818289685796,-4.74505310761312
14.3348059532195,-24.1096141020717,-1.20922737333642,-0.492408454674996,4.86560329100487,0.417826470757055,-4.06032462487204,101.615515792929,13.9514107287993,13.1087691267681,-4.65457401862516
13.6342105952574,-23.9907219494293,-0.734071352937799,-0.567812105159362,5.03865659032198,0.845348167210787,-4.00861017375829,101.863081160859,13.9043732545606,12.8341450398291,-4.58581743646065
12.9548739487169,-23.8720410621341,-0.264624276244216,-0.639181400943017,5.19779041497713,1.24973939467902,-3.95834434216654,102.089421582942,13.8539531791923,12.5576323347813,-4.53759225674684
12.2982475942252,-23.754378593983,0.198010060124528,-0.706437930123329,5.3431459213972,1.63172165007705,-3.90943795115119,102.295232144095,13.8011812071085,12.2788770963118,-4.50861714632847
11.6656348282698,-23.6385046311327,0.652820674691087,-0.769544324087447,5.47493901489801,1.9920635288144,-3.86183843575369,102.481186329664,13.7468823078629,11.9975333509831,-4.49753660073269
11.0581881923251,-23.5251433722812,1.09890010012431,-0.828505243991131,5.59345322038745,2.33157408497859,-3.81552836855221,102.647936239211,13.6916807790737,11.7133030773664,-4.50293573063648
10.4769034379396,-23.4149650552573,1.53545282307971,-0.883367502511798,5.69903218838482,2.65109627974667,-3.77052303792794,102.796113084991,13.636007559973,11.4259773590641,-4.52335338114731
9.92261032238735,-23.3085787777198,1.96180132122783,-0.934219334024604,5.79207199726649,2.95150056547488,-3.72686717226996,102.926328164956,13.5801097376809,11.1354772199098,-4.55729321867937
9.39596095862035,-23.2065263411833,2.37738963524767,-0.981188832767604,5.87301340957697,3.23367864763079,-3.68463094193556,103.039174453296,13.5240621273434,10.8418926127413,-4.60323251222537
8.89741679129928,-23.1092772253356,2.7817844930594,-1.02444158023311,5.94233423083693,3.49853745958263,-3.64390540552941,103.135228892985,13.4677807471884,10.5455179807395,-4.65962850066462
8.42723561679487,-23.0172247760131,3.17467408091226,-1.06417749037974,6.00054190446857,3.74699337500223,-3.60479758442525,103.215055412021,13.4110379640068,10.2468827850564,-4.7249224696055
7.98546037454092,-22.9306836679646,3.55586462806328,-1.10062692067193,6.04816645858043,3.97996667032417,-3.5674253446081,103.279208623248,13.3534790616467,9.94677541286286,-4.79754193111328
7.57191165988337,-22.8498886842684,3.92527503394772,-1.13404612866498,6.08575390171422,4.19837623789308,-3.53191224130428,103.328238109973,13.294639980425,9.64625896819097,-4.87590156350336
7.18618598183798,-22.7749948369976,4.28292981460883,-1.16471219270694,6.11386014536853,4.40313454228021,-3.49838244698882,103.36269314807,13.2339659772731,9.3466776257164,-4.95840377940804
6.82766164669963,-22.706078835174,4.62895067628604,-1.19291755312461,6.13304550974091,4.59514280955342,-3.46695584444189,103.383127672675,13.1708309546101,9.04965251719892,-5.04343990732046
6.49551373670295,-22.6431418821402,4.9635470383336,-1.21896435795206,6.14386984421557,4.77528644143831,-3.43774333068733,103.390105267792,13.104557196551,8.75706653929626,-5.12939296551416
6.18873895191886,-22.5861137524573,5.28700582614152,-1.24315880713531,6.14688826515602,4.94443065195629,-3.41084235276347,103.384203945651,13.0344352376834,8.47103801142351,-5.21464286771219
5.90619012625501,-22.5348580591022,5.59968083884914,-1.2658056782494,6.1426474836788,5.10341633203295,-3.38633268917491,103.366020495313,12.9597435765681,8.19388372047463,-5.29757464648587
5.64661911026284,-22.4891785798127,5.90198196868217,-1.28720318904664,6.13168267274539,5.2530561564022,-3.364272504057,103.336174218237,12.8797679294162,7.92807247931254,-5.37658996585676
5.40872558444045,-22.4488264726133,6.19436451235324,-1.30763831593463,6.11451481197568,5.3941309571618,-3.34469472954297,103.295309925701,12.7938196908572,7.67617081365411,-5.45012188567989
5.19120840411224,-22.4135081783863,6.4773187742496,-1.32738265110445,6.09164844954464,5.52738640184772,-3.32760386282117,103.244100134171,12.7012532284715,7.44078272887147,-5.51665258177737
4.99281544526788,-22.3828937846532,6.75136011986917,-1.3466888509301,6.06356982938719,5.65353003078777,-3.31297328317392,103.183246444856,12.6014815984964,7.22448569467579,-5.57473352315222
4.81238773282758,-22.3566256119382,7.01701959977459,-1.36578770824432,6.03074534484159,5.77322872351303,-3.30074319233062,103.113480125053,12.4939902520448,7.0297650557864,-5.62300744404557
4.64889392699354,-22.3343267851656,7.27483523266915,-1.38488587129594,5.99362029265072,5.8871066703498,-3.29081925992864,103.035561923463,12.3783483234763,6.85894906872152,-5.66023130873332
4.50145198452017,-22.3156095683112,7.52534401304432,-1.40416422855522,5.9526179100192,5.99574392015107,-3.28307202388572,102.950281153893,12.254217163065,6.71414670235447,-5.6852993460698
4.36933591298107,-22.3000832683983,7.76907469340261,-1.42377697366265,5.90813868143674,6.09967556047066,-3.27733706564544,102.858454073888,12.1213558869474,6.59719023234895,-5.69726513504327
4.25196688768572,-22.2873615504235,8.00654138059078,-1.44385135126821,5.86055990386085,6.19939156549429,-3.2734159621351,102.760921569603,11.9796238512222,6.50958450711099,-5.69536166833274
4.14888949031233,-22.2770690435404,8.23823797731857,-1.46448805979975,5.81023550136836,6.29533732142523,-3.27107801038014,102.658546141339,11.8289800965258,6.45246455897543,-5.67901832868709
4.05973534147022,-22.2688471576067,8.46463349085614,-1.48576225579711,5.75749608417149,6.38791481046735,-3.27006271935301,102.552208173562,11.6694799421358,6.42656297314195,-5.6478737959444
3.98417780486454,-22.2623590664322,8.68616821921142,-1.50772507397963,5.70264925161874,6.47748440637224,-3.27008305896862,102.442801473709,11.5012690285155,6.43218811174135,-5.60178405858176
3.92188257227184,-22.2572938492991,8.90325081058364,-1.53040555324553,5.64598014413743,6.56436720983698,-3.27082944569866,102.331228077934,11.3245752110268,6.46921393085309,-5.54082491871873
3.8724595976826,-22.253369814237,9.11625617637054,-1.55381284340181,5.58775225321668,6.6488478316423,-3.27197442840266,102.218392349507,11.1396987904664,6.53708173182265,-5.46528863686914
3.83542184411895,-22.250337051657,9.32552422326459,-1.57793856122933,5.52820849786935,6.7311775149125,-3.27317801571202,102.105194434817,10.9470016201348,6.63481376424022,-5.37567464821259
3.81015552548558,-22.2479792813177,9.5313593558307,-1.60275916915457,5.46757256764728,6.81157747626035,-3.27409355499995,101.99252318653,10.7468956469341,6.76103816537678,-5.27267458148115
3.79590501171957,-22.2461150579565,9.73403068597916,-1.62823826765568,5.40605051603608,6.89024234150619,-3.27437403076736,101.881248705061,10.5398314236335,6.91402430290061,-5.15715210626773
3.79177355243374,-22.2445983941725,9.93377286984532,-1.65432872301404,5.34383256627927,6.96734355697861,-3.27367859978681,101.772214681657,10.3262870755802,7.09172720517063,-5.03011840078762
3.79673884622623,-22.2433188487278,10.130787478364,-1.68097458899019,5.281095069193,7.04303267047213,-3.27167913184917,101.666230745996,10.1067581257006,7.29183943874601,-4.89270424630734
3.8096806626794,-22.2422011195028,10.3252447989354,-1.70811281499286,5.21800253666693,7.11744439179944,-3.2680664945847,101.564065027775,9.88174848457401,7.51184855115934,-4.74612990342706
3.82941653906123,-22.2412041756641,10.517285963907,-1.73567475658489,5.15470967246861,7.1906993566226,-3.26255632202406,101.466437136444,9.65176280477274,7.74909805508144,-4.59167400830121
3.85474116150987,-22.240319963201,10.7070253065374,-1.76358751351058,5.09136333632268,7.26290652705279,-3.25489404164824,101.374011748326,9.41730028806974,8.00084988685889,-4.4306427461627
3.884465334732,-22.239571720429,10.8945528552278,-1.79177511670676,5.02810440484343,7.33416516940382,-3.24485899512438,101.287392969353,9.1788499292998,8.26434631735805,-4.26434051505268
