Finger Velocity,Scap_X,Scap_Y,Scap_Z,Shoulder horiz abd-adduction,Shoulder flexion-extension,Shoulder internal-external rotation,elbow flexion-extension,forearm pronation-supination,wrist flexion-extension,wrist radial-ulnar deviation
1.11519577213225,-24.2884973342445,-13.6672820697539,6.02011972388082,-4.45110384696473,-39.2723355958773,-11.0735532062869,55.1327788227786,-27.1496478885104,1.8935311397283,-18.3255358503488
1.29542418666245,-24.2873267199703,-13.6736023576379,6.0234593731583,-4.45815704447587,-39.2865008736073,-11.0894797518839,55.1627464500382,-27.0708960441041,1.73181874241034,-18.1662489375064
1.4839123655495,-24.2874418132011,-13.6797670834252,6.0263772310525,-4.46371581166919,-39.3002288810033,-11.1039655108542,55.1933496962889,-26.9787562453364,1.52249927201009,-17.9605654779622
1.67933753192106,-24.2888914627921,-13.6856792269739,6.02877990073428,-4.46727075038035,-39.3131691935887,-11.1167047894924,55.2240950066284,-26.8720635899011,1.26164664930378,-17.7047464072019
1.88031406996661,-24.2916956349966,-13.691237117248,6.0305712529997,-4.4682489046209,-39.3249242428594,-11.1273565183984,55.2543853480215,-26.7496987934714,0.945833787781604,-17.3955316338788
2.08539732495392,-24.2958441191174,-13.6963355502428,6.03165364727499,-4.46601560199452,-39.3350487884397,-11.1355450790195,55.2835172962327,-26.6106044838414,0.572246757418006,-17.0302515472307
2.29309481959894,-24.3012957636781,-13.7008668570411,6.03192918013327,-4.45987783339755,-39.3430503841269,-11.1408620553069,55.3106799650485,-26.4538013474473,0.138791989649338,-16.6069328217241
2.50188205907023,-24.3079782314316,-13.7047219260694,6.0313009375134,-4.44908926406189,-39.3483909300081,-11.1428689922338,55.3349559914148,-26.2784039607302,-0.355807817950924,-16.1243942674105
2.71022120926034,-24.315788238287,-13.7077912007497,6.02967423135231,-4.43285694427553,-39.3504893747895,-11.141101237674,55.3553247663432,-26.0836361541771,-0.911933739471265,-15.5823281152203
2.91658147843969,-24.3245922236187,-13.7099656856312,6.02695780529318,-4.41034975078068,-39.3487256050466,-11.135072930923,55.3706680676406,-25.8688457752808,-1.52901137871937,-14.9813619309299
3.11946031150882,-24.3342273904787,-13.7111379998355,6.02306499791981,-4.38070853803509,-39.3424455316447,-11.1242831788965,55.379778206653,-25.6335187397295,-2.20547695319804,-14.3230964602494
3.31740465677696,-24.344503054222,-13.7112035169413,6.01791485637177,-4.3430579149682,-39.3309673575689,-11.1082234303293,55.3813687495199,-25.3772922805011,-2.93877270265305,-13.6101152443793
3.50903165409867,-24.3552022447536,-13.7100616265914,6.01143319858216,-4.29651949410638,-39.3135889845993,-11.0863860195969,55.3740878169749,-25.0999673060573,-3.72537453372848,-12.8459628555811
3.69304815390944,-24.3660835177654,-13.7076171467748,6.00355362832275,-4.24022639376042,-39.2895964859889,-11.0582738037144,55.3565339070113,-24.8015197472595,-4.5608532878194,-12.035090048165
3.86826852688864,-24.3768829411025,-13.7037819084481,5.99421851259699,-4.17333871668962,-39.2582735358029,-11.0234107562741,55.3272741213149,-24.4821107060672,-5.43996915455626,-11.1827659141739
4.03363027329307,-24.3873162318251,-13.6984765268588,5.9833799344452,-4.09505968330711,-39.2189116434442,-10.9813533116002,55.2848646090504,-24.1420951288288,-6.3567966894775,-10.2949591448879
4.18820699488413,-24.3970810266953,-13.6916323667766,5.97100063501675,-4.00465206313179,-39.1708209995126,-10.931702178002,55.227872971702,-23.7820286311137,-7.30487583103741,-9.37819254158683
4.33121835396326,-24.405859273998,-13.6831937006751,5.95705495604288,-3.90145452112362,-39.1133417043452,-10.8741142696637,55.1549023016271,-23.4026720177335,-8.27738249033533,-8.43937676772106
4.46203671516408,-24.4133197392318,-13.6731200471581,5.94152978662064,-3.78489747244986,-39.045855129587,-10.808314349514,55.0646164555655,-23.0049929846141,-9.26731092167033,-7.48563079484891
4.58019024732764,-24.4191206228162,-13.6613886592617,5.92442550596685,-3.65451801978041,-38.9677951585413,-10.7341059363524,54.9557660945494,-22.5901644668551,-10.2676593024702,-6.5240974377446
4.68536235539302,-24.4229122949326,-13.6479971087174,5.90575689796897,-3.50997353412988,-38.8786590620371,-10.6513810154673,54.8272149571492,-22.1595591162712,-11.2716098037286,-5.5617627093079
4.77738741556519,-24.4243401594873,-13.632965885942,5.88555399787047,-3.3510534388349,-38.7780177892171,-10.5601281089892,54.6779657764328,-21.7147394613036,-12.2726949108375,-4.60528738473946
4.85624290019482,-24.4230476625821,-13.6163409121709,5.86386282098892,-3.17768877424726,-38.665525479427,-10.4604383117867,54.507185202526,-21.2574434323183,-13.2649428143007,-3.66085814750562
4.92203810007739,-24.4186794576268,-13.5981958457277,5.84074592067506,-2.98995916510493,-38.5409280236389,-10.3525089763181,54.3142270521838,-20.7895651267048,-14.2429962528715,-2.73406410283785
4.97499977842032,-24.4108847300604,-13.5786340609414,5.81628272694194,-2.78809688392005,-38.4040705172214,-10.2366448260979,54.0986531771657,-20.3131309239927,-15.2022011466661,-1.82980247261259
5.01545521837478,-24.3993206739994,-13.557790183353,5.79056962496722,-2.57248779613663,-38.2549034513154,-10.1132563808671,53.8602512319251,-19.8302713109372,-16.138663523948,-0.952215153881293
5.04381324912856,-24.3836561041883,-13.5358310761956,5.7637197409233,-2.34366907921346,-38.09348749065,-9.98285567820703,53.599048641094,-19.3431890117809,-17.0492753609401,-0.104655774877268
5.06054394693522,-24.3635751790146,-13.5129561903039,5.73586241043132,-2.10232372222533,-37.9199966865399,-9.84604937374409,53.3153221335659,-18.854124226779,-17.9317117529738,0.7103148634903
5.0661577986466,-24.338781203093,-13.4893972114609,5.70714231303106,-1.84927192750226,-37.7347199840061,-9.70352939770424,53.0096023300786,-18.3653179626601,-18.7844031507608,1.49090837354407
5.06118517710402,-24.3090004720726,-13.4654169623917,5.67771826461205,-1.58545964141097,-37.5380609098035,-9.55606143991274,52.6826730375189,-17.8789745910354,-19.606487186905,2.23606761831967
5.04615700105288,-24.2739861196067,-13.4413075378674,5.64776166806236,-1.3119445299954,-37.3305353747192,-9.40447162258951,52.3355650978799,-17.3972248833234,-20.397744922867,2.94540937632023
5.02158742935935,-24.2335219265745,-13.4173876699841,5.61745463030358,-1.02987978568474,-37.1127675818191,-9.24963179093763,51.9695448454226,-16.9220908255952,-21.158526237304,3.61915537121354
4.98795936525778,-24.1874260529204,-13.3939993384305,5.58698776262549,-0.740496207810424,-36.8854840918893,-9.09244389774567,51.5860974296849,-16.4554534988657,-21.8896686545553,4.2580558688895
4.94571342026872,-24.1355546501325,-13.371503659775,5.55655769231505,-0.4450830464311,-36.6495061487896,-8.93382397695967,51.1869054545453,-15.9990252113699,-22.5924133113278,4.86330951847662
4.89524081351266,-24.0778053067767,-13.3502761115536,5.52636432714184,-0.144968134909448,-36.405740406139,-8.77468619395361,50.7738235532219,-15.5543268868632,-23.2683211152324,5.43648250358852
4.83688047005571,-24.0141202716509,-13.330701170548,5.49660792891123,0.158502145636428,-36.1551682249369,-8.61592743185614,50.3488496536056,-15.1226714537944,-23.9191915425877,5.97942945838192
4.77092034624205,-23.9444893901612,-13.313166467928,5.46748606614828,0.463982536413799,-35.8988337370704,-8.458412829783,49.9140937790013,-14.705153665737,-24.546985971116,6.49421803886575
4.69760276880895,-23.8689526806142,-13.2980565842772,5.4391905272039,0.770147711878845,-35.6378308982638,-8.30296263345294,49.4717452740853,-14.3026464479807,-25.1537569417607,6.98305854365195
4.61713334745383,-23.7876024698982,-13.2857466231027,5.41190428156269,1.07570980319381,-35.3732897840954,-8.15034065013036,49.0240393471142,-13.9158035432154,-25.741584311254,7.44823955444974
4.5296928258444,-23.700585004051,-13.276595711426,5.38579857682597,1.37943428780174,-35.1063624065095,-8.00124451760219,48.5732237810548,-13.5450679426598,-26.3125189206117,7.89207021467014
4.43545108876491,-23.6081014491611,-13.2709405800867,5.36103025092379,1.68015398879333,-34.8382083399807,-7.85629790753131,48.1215265942956,-13.1906853482284,-26.8685341598074,8.31682948295337
4.33458245280533,-23.5104082019454,-13.2690893745769,5.33773932482606,1.97678101918919,-34.5699804452952,-7.71604469901469,47.6711253356893,-12.8527217271138,-27.411485611716,8.72472248034807
4.22728133813655,-23.4078164371646,-13.2713158402422,5.31604692363026,2.26831659182005,-34.3028109658606,-7.58094508918251,47.2241185910419,-12.5310839056277,-27.9430787599741,9.11784387981364
4.11377744674114,-23.3006908307304,-13.2778540143065,5.29605355749094,2.55385868716553,-34.0377982479917,-7.45137355950543,46.7825001693048,-12.2255421072312,-28.464844527027,9.49814814794927
3.99434965007789,-23.189447412402,-13.2888935422702,5.27783778113743,2.8326076238991,-33.7759943057085,-7.32761858813185,46.348136332389,-11.9357533576787,-28.9781221885314,9.86742633306049
3.86933790502614,-23.0745505189804,-13.3045757193919,5.2614552419316,3.10386961023134,-33.5183934164814,-7.20988398369563,45.9227463339589,-11.661284743732,-29.4840490168494,10.2272889967887
3.73915265773412,-22.9565088360773,-13.3249903410605,5.24693812042923,3.36705837338116,-33.2659219005462,-7.09829170617101,45.5078864392516,-11.4016356187533,-29.983555854981,10.5791548009457
3.60428134719526,-22.8358705326827,-13.3501734302437,5.23429496324429,3.62169497592851,-33.0194292050151,-6.99288602906828,45.1049375102229,-11.156258001585,-30.4773677337273,10.9242441887256
3.46529177168772,-22.713217507786,-13.3801058965164,5.22351090519027,3.86740593656336,-32.7796803863278,-6.89363888215669,44.7150961603805,-10.9245746067351,-30.9660086587805,11.2635775644197
3.32283222136881,-22.5891587830262,-13.4147131698332,5.21454827553062,4.10391978213316,-32.5473500603871,-6.80045619505908,44.3393694147242,-10.7059941537165,-31.4498098212706,11.5979773996747
3.17762840148888,-22.4643230921914,-13.4538658420984,5.20734757972462,4.33106217019022,-32.3230178669013,-6.71318503972735,43.9785727536657,-10.4999238081298,-31.9289206627658,11.9280737616003
3.03047726753509,-22.3393507416818,-13.4973813363793,5.20182884023362,4.54874973862582,-32.1071654716058,-6.63162134538465,43.6333313735419,-10.3057787869086,-32.4033223635012,12.2543128276882
2.88223796313206,-22.2148848492318,-13.5450266025016,5.19789326672374,4.75698286136618,-31.9001751080863,-6.55551793932849,43.3040844569318,-10.12298930109,-32.8728433787836,12.5769679973947
2.73382009289584,-22.0915621097474,-13.5965218083799,5.19542521120155,4.95583751173832,-31.7023296403625,-6.48459266140155,42.9910922117597,-9.95100510607636,-33.3371766413753,12.8961532294672
2.58616957707988,-21.9700032805062,-13.6515449627935,5.19429435415925,5.14545645114677,-31.513814106432,-6.41853631615806,42.6944454084637,-9.78929798488935,-33.7958980165322,13.2118382388755
2.4402523268367,-21.8508036156968,-13.7097373708894,5.19435806787751,5.32603996718495,-31.3347186804763,-6.35702026278135,42.4140771180565,-9.63736251324747,-34.248485573985,13.5238651871751
2.2970359559527,-21.7345235081272,-13.7707097896587,5.19546391036407,5.49783638513949,-31.165042969625,-6.29970348850733,42.149776330409,-9.49471545838824,-34.6943392456505,13.8319664983605
2.15746971990891,-21.6216796125342,-13.8340491191009,5.19745221206929,5.66113257331684,-31.0047015429811,-6.24623905514256,41.9012031141391,-9.36089415901946,-35.1328004738463,14.1357834300558
2.02246286622773,-21.5127367281874,-13.8993254416802,5.2001587241878,5.81624465362985,-30.8535305743264,-6.19627984421048,41.6679049698243,-9.23545422990532,-35.563171519524,14.4348850325703
1.89286162040896,-21.4081007052083,-13.9660992143562,5.20341730265029,5.96350911016977,-30.7112954603133,-6.14948355505881,41.4493340256946,-9.11796693016569,-35.9847341793284,14.7287871393017
1.76942515727252,-21.3081126084551,-14.0339284245783,5.2070626059062,6.10327446108935,-30.5776992513071,-6.10551693442168,41.2448647251565,-9.00801651963925,-36.3967677238068,15.0169710486663
1.65280115994937,-21.2130443277024,-14.1023755383824,5.21093278482217,6.2358936285408,-30.4523917068294,-6.06405923558776,41.0538116552205,-8.90519789316293,-36.798565892116,15.2989015810978
1.54350197992241,-21.1230957671634,-14.1710140885238,5.21487213799399,6.36171711134821,-30.3349787667651,-6.02480491965527,40.8754471637096,-8.80911472751085,-37.189452768198,15.5740442308464
1.44188297789896,-21.0383936854109,-14.2394347707145,5.218733697634,6.48108703628672,-30.2250322140667,-5.98746562193921,40.7090184122679,-8.71937830661677,-37.5687973479911,15.8418811799937
1.34812527339437,-20.958992193736,-14.307250937309,5.22238170335979,6.59433213700034,-30.122099293608,-5.95177141700178,40.5537635149952,-8.63560711506335,-37.93602660096,16.1019259879212
1.2622256875551,-20.8848748627884,-14.3741034011142,5.22569391510857,6.70176368614384,-30.0257120466239,-5.91747142819812,40.4089264245527,-8.5574272133361,-38.290636822685,16.353736799307
1.18399686013352,-20.8159583379104,-14.4396644868627,5.22856371162026,6.80367238707053,-29.9353961242075,-5.88433384183212,40.2737702535004,-8.48447333596011,-38.6322030685448,16.5969279249844
1.11308006344545,-20.7520973228182,-14.5036412940435,5.23090191777098,6.90032621509686,-29.8506788576129,-5.85214540201081,40.1475887589504,-8.41639058906958,-38.9603864832967,16.8311796536254
1.04897194659909,-20.693090755746,-14.5657781625042,5.23263830462459,6.99196918157729,-29.7710963852617,-5.82071048154562,40.0297157704536,-8.35283656885315,-39.2749394261442,17.0562461637758
0.99106442236122,-20.6386889691311,-14.6258583587382,5.23372271217573,7.07882097354219,-29.6961996657,-5.78984984612483,39.9195324007536,-8.2934836784877,-39.5757084145959,17.2719614326121
0.938694598473109,-20.5886015946204,-14.6837050193203,5.23412575498136,7.16107739815982,-29.6255592459947,-5.75939924672195,39.8164719436825,-8.23802139379958,-39.8626350151988,17.4782430745702
0.891199712168015,-20.5425059540863,-14.7391813932158,5.23383908162068,7.23891153902423,-29.5587687100208,-5.72920797909561,39.7200224308364,-8.18615822404286,-40.135754856372,17.6750940805548
0.847971031903649,-20.5000556687735,-14.7921904178043,5.23287516816565,7.31247551434592,-29.4954467987528,-5.69913753504936,39.6297268867534,-8.1376231370638,-40.395194937624,17.8626024661196
0.808500860442574,-20.4608892240883,-14.8426736519466,5.23126663480993,7.38190271686217,-29.4352382655441,-5.6690604430178,39.5451813882429,-8.0921662634129,-40.6411693971365,18.0409388843495
0.772417870653001,-20.4246382445894,-14.8906095832488,5.22906508610169,7.44731041009999,-29.377813590226,-5.63885936537737,39.46603109352,-8.04955875233641,-40.8739739049138,18.2103523255894
0.739507505230516,-20.3909352584603,-14.9360113325,5.22633949045636,7.50880255268511,-29.3228677170299,-5.60842649417918,39.3919644581057,-8.00959171504654,-41.0939788790331,18.3711641099774
0.709715572627589,-20.3594207603229,-14.9789237958372,5.22317413343061,7.56647272031455,-29.2701180017691,-5.57766326856012,39.322705896746,-7.97207425184708,-41.3016217664995,18.5237604644002
0.683134268353508,-20.3297494146854,-15.019420289407,5.21966619970522,7.62040699535945,-29.2193015587546,-5.5464804254677,39.2580071849336,-7.93683061688121,-41.4973986603086,18.668584040329
0.659970848191839,-20.301595278997,-15.0575987866723,5.21592305834003,7.67068669965546,-29.1701721938468,-5.51479838868754,39.1976379202608,-7.90369662520571,-41.6818555129091,18.8061247568832
0.640500604282294,-20.274655964362,-15.0935778604765,5.21205934222485,7.71739085843311,-29.1224971020717,-5.48254799621466,39.1413753823257,-7.87251544979942,-41.8555791539659,18.9369103459233
0.625008181387039,-20.2486556930859,-15.1274924555776,5.20819392350032,7.76059830269495,-29.0760535015762,-5.44967155809048,39.0889941406009,-7.84313299140537,-42.0191882602173,19.0614969489864
0.613724640480249,-20.2233472553089,-15.1594896183587,5.20444689021254,7.80038934339146,-29.0306253740645,-5.41612422207397,39.0402557640136,-7.8153930336479,-42.1733243900594,19.180460084352
0.60677102695522,-20.198512910686,-15.1897242990073,5.20093662506708,7.83684698217627,-28.9860004836527,-5.38187560245261,38.9948989849802,-7.78913241987562,-42.3186431894502,19.2943862702653
0.604120544507253,-20.17396432193,-15.2183553228364,5.19777707614896,7.87005765674963,-28.9419678445146,-5.34691160080437,38.9526306635944,-7.76417650381035,-42.4558058806969,19.4038655536585
0.605588886791741,-20.1495416410978,-15.2455416075553,5.19507529434894,7.90011154866477,-28.898315796488,-5.31123632086164,38.9131178830284,-7.74033512958801,-42.5854711452857,19.5094851490816
0.610855742056448,-20.1251118943503,-15.2714386859239,5.19292929563501,7.92710250360155,-28.8548308249603,-5.27487395696398,38.8759814844013,-7.71739938689533,-42.7082875054037,19.6118243400643
0.619512379454977,-20.1005668258716,-15.2961955804451,5.19142629036395,7.95112762680463,-28.8112972283805,-5.23787052074289,38.8407913201761,-7.69513936535365,-42.8248863066473,19.7114507379358
0.631124086085145,-20.0758203672421,-15.319952069541,5.19064130784627,7.97228662104365,-28.767497696813,-5.20029526700719,38.8070634726521,-7.67330310067581,-42.9358754138823,19.8089179356578
0.645294235645947,-20.0508058963065,-15.3428363819756,5.19063623277043,7.99068093427318,-28.7232148217591,-5.16224168941168,38.7742596503922,-7.6516168623994,-43.0418337475828,19.9047645391974
0.661718554348474,-20.0254734414916,-15.3649633554159,5.19145926042753,8.0064127820296,-28.6782335142792,-5.12382797893294,38.7417889406097,-7.62978687772792,-43.143306793635,19.9995145056794
0.680221694887026,-19.9997869756327,-15.3864330930752,5.19314476869381,8.01958410702713,-28.6323442679213,-5.08519686970159,38.7090120591447,-7.60750252031852,-43.2408032041217,20.093678664728
0.700771659223846,-19.9737219292165,-15.4073301473203,5.19571359475743,8.03029553575713,-28.5853471672522,-5.04651483170431,38.6752482015268,-7.58444092281684,-43.334792573407,20.1877572490049
0.723470203415091,-19.9472630371,-15.4277232504829,5.19917369256667,8.03864538841188,-28.5370565127241,-5.00797060341581,38.6397845581799,-7.56027290477706,-43.4257044352866,20.2822432159878
0.748519433180605,-19.9204026145415,-15.4476656017082,5.20352113377264,8.04472879214451,-28.4873059077132,-4.9697730871808,38.6018885124825,-7.53467004963518,-43.5139284917218,20.37762610761
0.776167028630764,-19.8931393367935,-15.4671957054083,5.20874140377283,8.04863693614753,-28.4359536338275,-4.93214865619911,38.5608224902877,-7.50731272064275,-43.5998160537467,20.4743961672687
0.806635255144205,-19.8654775712924,-15.4863387421493,5.21481093900906,8.05045648978082,-28.3828881272742,-4.89533794484548,38.5158613726387,-7.47789877939759,-43.6836826489806,20.5730484139331
0.840041753425729,-19.8374272833954,-15.5051084369883,5.22169885254518,8.05026918496568,-28.3280333636795,-4.85959221231782,38.4663123202047,-7.44615276210465,-43.7658117244596,20.6740863605274
0.876322073703596,-19.8090045069793,-15.5235093741732,5.22936879905718,8.04815154589473,-28.2713539609883,-4.82516938037477,38.4115367900479,-7.41183527445576,-43.8464593465839,20.7780250606886
0.915163991431861,-19.7802323415461,-15.5415396922178,5.23778093405351,8.04417473573048,-28.2128598171289,-4.79232984819661,38.3509744547088,-7.3747523802032,-43.9258597749867,20.8853931788008
0.955961449699592,-19.751142409427,-15.559194081469,5.24689392374406,8.03840448205072,-28.1526101072803,-4.76133218308828,38.2841686617323,-7.33476477589122,-44.0042317675976,20.9967338052215
0.997792195072986,-19.7217766822371,-15.576466997918,5.25666696167921,8.03090104041302,-28.0907164735303,-4.73242877781173,38.2107929997576,-7.29179656168354,-44.0817854567753,21.1126037785949
1.03941922101435,-19.6921895669066,-15.593356000347,5.26706174722687,8.02171915837447,-28.0273452498773,-4.70586155656241,38.1306784667704,-7.24584343386621,-44.1587296121739,21.233571323558
