Finger Velocity,Scap_X,Scap_Y,Scap_Z,Shoulder horiz abd-adduction,Shoulder flexion-extension,Shoulder internal-external rotation,elbow flexion-extension,forearm pronation-supination,wrist flexion-extension,wrist radial-ulnar deviation
0.951942979107895,-24.2017790264541,-15.0548235575088,6.20047763699476,-5.86557438247983,-38.5884466450544,-11.3694354157722,57.215794163491,-26.7556452994147,5.93694038736965,-19.723848026846
1.0638895080451,-24.2033571137996,-15.0571192143506,6.20441575509274,-5.86298450362418,-38.5889457046265,-11.366330988228,57.2500081694275,-26.664061435628,6.06157366443015,-19.8129387459964
1.18196016201263,-24.206229726985,-15.0586224969698,6.20786048657225,-5.85458454001665,-38.5901512002548,-11.3584730010371,57.2849465097988,-26.5618966573505,6.16941050407478,-19.8826496883784
1.3058469327548,-24.2103170187965,-15.0592485590729,6.21087495454612,-5.83978837942949,-38.5918159659145,-11.345857571878,57.3200008296175,-26.4479049924685,6.25648022487375,-19.9293383717201
1.43517680916255,-24.2155119098559,-15.0589233540574,6.21352102219928,-5.81797235459605,-38.5936448441661,-11.3284889719583,57.3544247027407,-26.3208962996182,6.31869018548143,-19.9492970892984
1.56951324780978,-24.2216804587829,-15.0575841257067,6.21585604110498,-5.78847812386987,-38.5952966619092,-11.3063746293644,57.3873315159815,-26.1797618286135,6.35186644335744,-19.9387919828035
1.70835869361267,-24.2286626089564,-15.0551797194701,6.21792962989521,-5.75061748804425,-38.5963869016909,-11.2795209500361,57.417695859792,-26.0234985390327,6.35180121507838,-19.8941079919787
1.85115803578598,-24.2362733131053,-15.0516707186746,6.21978055366955,-5.70367920789236,-38.5964910581771,-11.2479301473636,57.444358733857,-25.8512314777088,6.31430767997027,-19.8116001737699
1.99730288638523,-24.2443040391776,-15.0470294090026,6.22143377486726,-5.64693780303086,-38.595148669119,-11.2115982089772,57.4660367711427,-25.6622335570281,6.23528244420414,-19.6877516476992
2.14613656904242,-24.2525246648319,-15.0412395699616,6.22289774733856,-5.57966422180069,-38.591868009099,-11.1705140658489,57.4813355586058,-25.4559421408189,6.11077564678943,-19.5192380886718
2.29695970584914,-24.2606857718924,-15.0342960862734,6.22416202759533,-5.5011381834343,-38.5861314286466,-11.1246599682673,57.4887669919412,-25.2319719372127,5.93706824503021,-19.3029982550402
2.44903629172306,-24.2685213539792,-15.0262043674225,6.22519527964794,-5.41066191266119,-38.5774013104417,-11.0740130160188,57.4867704505819,-24.990123821896,5.7107554593819,-19.0363095019899
2.60160014849974,-24.2757519481445,-15.0169795626396,6.2259437504927,-5.30757491387991,-38.5651265987956,-11.0185477353113,57.4737374238186,-24.7303893688907,5.42883467618774,-18.7168665827799
2.75386165556166,-24.282088193195,-15.0066455641614,6.22633029048103,-5.19126936933997,-38.5487498373638,-10.9582395432866,57.4480390679879,-24.4529510380288,5.0887953066015,-18.3428612932704
2.90501465995309,-24.2872348026695,-14.995233804849,6.22625398524947,-5.06120569782965,-38.5277146226575,-10.8930688950507,57.4080560381272,-24.1581781413083,4.68870722569765,-17.9130597100058
3.05424347637214,-24.2908949192367,-14.9827818760299,6.22559045334196,-4.91692778022092,-38.5014733495825,-10.8230258715854,57.3522098245087,-23.8466188677515,4.2273035676769,-17.42687299522
3.20072989581383,-24.2927747907687,-14.9693320153305,6.22419284742154,-4.75807734688088,-38.4694950935072,-10.7481149431463,57.2789947431163,-23.5189887740327,3.7040529802275,-16.8844171234184
3.34366013053646,-24.292588679101,-14.9549295392174,6.22189357931113,-4.58440702968613,-38.4312734444406,-10.6683596341627,57.18700968569,-23.1761562339913,3.11921610785084,-16.2865565805735
3.4822316319986,-24.2900638841038,-14.9396213167889,6.21850677155541,-4.39579160652425,-38.3863340865856,-10.5838068229226,57.0749887307701,-22.8191253805293,2.47388122330594,-15.6349272593666
3.61565972704463,-24.2849457419181,-14.9234543946775,6.21383142044967,-4.19223700497429,-38.3342419063833,-10.4945304309938,56.9418297473292,-22.4490170784594,1.76997464332168,-14.9319345450082
3.74318402553609,-24.2770024402549,-14.9064748826469,6.20765523581965,-3.97388668323662,-38.274607418982,-10.4006342902884,56.7866201790874,-22.0670484535643,1.01024282872115,-14.1807239725202
3.86407455953932,-24.2660294879021,-14.8887271934317,6.19975910006434,-3.74102507502906,-38.2070923268524,-10.3022540172137,56.6086592727652,-21.6745114835343,0.198204751169258,-13.3851237114698
3.97763761989086,-24.2518536811289,-14.8702537009327,6.18992206431722,-3.49407787616035,-38.1314140602045,-10.1995577731223,56.4074761015959,-21.2727511367762,-0.661924947373469,-12.5495602722818
4.08322126037564,-24.2343364253058,-14.8510948441844,6.17792677635015,-3.2336090618136,-38.0473491908273,-10.0927458486226,56.1828428342718,-20.8631435330636,-1.56533940235581,-11.678950978047
4.18022044288595,-24.2133762921875,-14.8312896680337,6.1635652160766,-2.96031464642407,-37.954735653561,-9.98204907437097,55.934782811554,-20.4470746035131,-2.50676492851687,-10.778578659817
4.2680817988973,-24.1889107178438,-14.8108767608007,6.14664460083769,-2.67501332294677,-37.8534737496106,-9.86772612873853,55.6635731228894,-20.0259197418685,-3.48060189956808,-9.85395546839943
4.3463079836127,-24.1609167705265,-14.7898955265033,6.12699331259911,-2.3786342399553,-37.7435259440654,-9.75005988007426,55.3697415279513,-19.6010249431546,-4.48107328939818,-8.91068344579956
4.41446159946952,-24.1294109407117,-14.7683877158027,6.10446669165518,-2.07220229129695,-37.6249155090416,-9.62935296707994,55.0540577449297,-19.1736898964431,-5.50237246972011,-7.95431946580829
4.47216866570698,-24.0944479271292,-14.7463991375956,6.07895253692175,-1.75682139859976,-37.497724104641,-9.50592288187728,54.7175193247782,-18.7451534290351,-6.53880219148406,-6.99025138284243
4.51912161071168,-24.0561184143874,-14.7239814810351,6.05037615162467,-1.43365634886271,-37.3620884308891,-9.38009686661687,54.3613325355914,-18.3165815995793,-7.5848978659075,-6.02359088686226
4.55508176424638,-24.0145458624485,-14.7011941898352,6.01870477404311,-1.1039137933768,-37.2181961214096,-9.25220695196342,53.9868888743409,-17.8890586212155,-8.63553002139316,-5.05908687674438
4.57988132774137,-23.9698823571003,-14.6781063411021,5.98395123571679,-0.768823016045168,-37.0662810773873,-9.12258544608486,53.5957379863882,-17.4635806726801,-9.68598280431026,-4.10106136408717
4.59342480285592,-23.9223036033845,-14.654798486725,5.94617669647635,-0.429617047294852,-36.9066184526681,-8.99156112861588,53.1895578967054,-17.0410525339607,-10.7320073472604,-3.1533681943083
4.59568986168666,-23.8720031801317,-14.6313644149215,5.90549232035391,-0.0875146480203699,-36.7395194974373,-8.85945632663235,52.7701235378438,-16.6222868728867,-11.7698505759319,-2.21937336778796
4.58672764641358,-23.8191862123797,-14.6079127822261,5.86205978121539,0.256296372854823,-36.5653264526975,-8.72658496173744,52.3392745974038,-16.208005916664,-12.7962614658231,-1.30195456731116
4.5666624918352,-23.7640626570055,-14.5845685533622,5.81609052141763,0.600674110028645,-36.3844076642989,-8.5932515682828,51.8988836990683,-15.7988451705152,-13.8084778527293,-0.403516701703385
4.53569107106052,-23.7068404319139,-14.5614741706065,5.76784372808975,0.944535461625877,-36.1971530563855,-8.45975119856924,51.4508258724464,-15.3953587971451,-14.8041976423043,0.473980148268241
4.49408097241201,-23.6477186471615,-14.5387903581692,5.71762303627292,1.28686674914309,-36.0039700737353,-8.32637005765976,50.9969501590081,-14.9980262505649,-15.7815386496113,1.32898408623194
4.44216872408513,-23.586881213132,-14.5166964546415,5.66577201364072,1.62673194047316,-35.8052801737903,-8.19338665546409,50.5390540540326,-14.6072597683728,-16.7389913167567,2.16030956827609
4.3803572919753,-23.5244911006435,-14.4953901634076,5.61266852705408,1.96327847558959,-35.6015159210753,-8.06107323352829,50.0788613141129,-14.2234123640587,-17.6753682295176,2.96709347687456
4.30911308494271,-23.4606855065238,-14.4750866218503,5.5587181362575,2.29574079658124,-35.3931187056335,-7.92969722132427,49.6180034826238,-13.8467860156049,-18.5897537785209,3.74875164636103
4.22896251022628,-23.395572137269,-14.4560167146954,5.50434670176767,2.62344175766243,-35.1805370733798,-7.79952249887535,49.1580053125432,-13.4776398054311,-19.4814566271343,4.50493778810118
4.14048812931218,-23.3292267694329,-14.4384245897122,5.44999242727524,2.94579213750129,-34.9642256245141,-7.6708102816201,48.7002741026443,-13.1161978161793,-20.3499669738655,5.2355061727213
4.04432447087012,-23.261692184561,-14.4225643710219,5.39609757745239,3.26228850496505,-34.7446444091249,-7.54381949075713,48.2460928145949,-12.7626566203305,-21.1949199779962,5.94047886956536
3.94115356194819,-23.1929785115185,-14.4086961064739,5.34310011858989,3.572509707512,-34.5222587254229,-7.41880652072392,47.7966167128758,-12.4171922235384,-22.0160661371658,6.6200178334746
3.83170024100259,-23.1230649411528,-14.3970810317935,5.29142552278193,3.87611226055128,-34.2975392043357,-7.29602436036882,47.352873173823,-12.0799663406358,-22.8132488463042,7.27440168752883
3.71672731603234,-23.0519027096657,-14.3879762828203,5.24147895882536,4.17282491397746,-34.0709620467786,-7.17572106482829,46.915764246743,-11.7511319037749,-23.5863888553591,7.90400671427727
3.59703062751781,-22.9794191820271,-14.3816292321834,5.1936380682286,4.46244265630753,-33.8430092710957,-7.05813761337839,46.486071516395,-11.4308377225798,-24.3354749270011,8.50929136601975
3.47343406832494,-22.9055228106659,-14.3782716625093,5.14824649631133,4.74482038740894,-33.6141688298204,-6.94350522741594,46.064462807219,-11.1192322321028,-25.0605596989415,9.09078353396123
3.34678460034955,-22.830108703252,-14.3781140113248,5.10560831869629,5.01986645172836,-33.3849344654106,-6.83204226303953,45.6515002795001,-10.81646627083,-25.7617595827568,9.64906985276199
3.21794728930078,-22.7530645112829,-14.3813399315939,5.06598347372647,5.28753618278416,-33.1558051911632,-6.72395083136905,45.2476494901023,-10.5226948269611,-26.439257489357,10.1847864376836
3.08780035323288,-22.6742763503156,-14.3881014065023,5.02958428181115,5.54782557396279,-32.927284303332,-6.61941333002905,44.8532890208146,-10.2380776830152,-27.0933072559645,10.6986106313232
2.95723018553018,-22.5936344816289,-14.3985146393405,4.9965731029159,5.80076516325151,-32.6998778512902,-6.51858908417117,44.4687203144095,-9.96277888835981,-27.7242388206249,11.1912535376013
2.82712626721223,-22.5110385202869,-14.41265691019,4.96706115235821,6.04641419821573,-32.4740925142625,-6.42161129157172,44.0941774035431,-9.69696500772126,-28.3324633882731,11.6634532963282
2.69837582512553,-22.4264019815139,-14.4305645503329,4.9411084623671,6.28485512850948,-32.2504328571398,-6.32858444406244,43.7298362703361,-9.44080213629922,-28.9184780178208,12.1159691705608
2.57185802141432,-22.3396560311787,-14.4522321338406,4.91872494349311,6.51618845456298,-32.0293979638261,-6.23958235977225,43.3758236306017,-9.19445173602825,-29.4828692225262,12.5495765741232
2.4484373778125,-22.2507523623517,-14.4776129269507,4.89987246775814,6.74052794379446,-31.8114774726895,-6.1546469126915,43.0322249908509,-8.95806542330862,-30.0263153124767,12.9650631658011
2.32895605292277,-22.1596651748775,-14.5066205729609,4.88446786619764,6.95799621293557,-31.597147066277,-6.0737874951846,42.6990918756134,-8.73177891303784,-30.5495873129518,13.3632260922743
2.21422451712625,-22.0663922867625,-14.5391319253518,4.87238670847274,7.16872067012576,-31.3868635012356,-5.99698120182452,42.3764481668835,-8.51570538438322,-31.0535483654376,13.7448703897056
2.10501013542249,-21.9709554531612,-14.5749908774988,4.86346771250869,7.37282981444739,-31.1810593065201,-5.92417368262786,42.064295536042,-8.30992857143119,-31.5391515598647,14.1108084705678
2.00202321529323,-21.8734000073748,-14.6140129808536,4.85751761926295,7.5704499018195,-30.9801373224533,-5.85528058155096,41.7626179787791,-8.1144958934338,-32.0074361554375,14.4618605399752
1.90590025966659,-21.7737939634025,-14.6559906055419,4.85431636447047,7.76170200066259,-30.7844652880321,-5.790189453886,41.4713854824051,-7.92941192878318,-32.4595221214658,14.7988557092134
1.81718454171836,-21.6722267275309,-14.7006983850203,4.85362238736461,7.94669947374378,-30.5943707002621,-5.72876204673754,41.1905568625619,-7.75463251245333,-32.8966028732499,15.122633504187
1.73630472363241,-21.5688075581771,-14.7478986969608,4.85517793408045,8.12554593045381,-30.4101361677358,-5.67083683017815,40.9200818062723,-7.59005970558307,-33.319936015094,15.4340454086432
1.6635530484795,-21.4636638936157,-14.7973469561885,4.85871423593767,8.29833369417378,-30.2319954662613,-5.61623167871404,40.6599021548122,-7.43553785144765,-33.7308318711581,15.7339560451562
1.59906551079586,-21.3569396415392,-14.8487965248002,4.86395646604973,8.46514282030644,-30.0601304791023,-5.56474661860997,40.4099524565773,-7.29085089481959,-34.1306396107582,16.0232435851317
1.54280710213324,-21.2487934960142,-14.9020030786055,4.87062840034731,8.62604068084198,-29.8946691667002,-5.51616657599796,40.1701598194213,-7.15572110045031,-34.5207308604753,16.3027989946041
1.49456540126186,-21.1393973188368,-14.9567283099134,4.87845673085625,8.7810821034941,-29.7356846608274,-5.47026408590859,39.9404430952123,-7.02980925958299,-34.9024808281023,16.5735237696884
1.45395515663137,-21.0289345967741,-15.0127428943961,4.88717499877725,8.93031002423209,-29.5831955207798,-5.42680195282389,39.7207114369546,-6.9127164208882,-35.277247123199,16.8363258965815
1.42043504030173,-20.9175989668764,-15.0698287004237,4.89652713064465,9.07375658910006,-29.4371671312322,-5.38553588340765,39.5108622802475,-6.80398712478436,-35.6463466328161,17.0921138843796
1.39333572752808,-20.8055927906116,-15.1277802670474,4.90627057087387,9.21144462936735,-29.2975141682554,-5.34621713397963,39.3107788145168,-6.7031140585725,-36.0110309976833,17.341788863337
1.37189644788371,-20.6931257539319,-15.1864056162261,4.91617900729499,9.34338943406303,-29.1641040162235,-5.30859522243285,39.1203270239958,-6.60954398661895,-36.3724614305154,17.5862349161355
1.35530578212464,-20.5804134735564,-15.2455264922448,4.92604468328061,9.46960075243297,-29.0367609880512,-5.27242074361177,38.9393523940889,-6.52268475127216,-36.7316838067061,17.8263080095315
1.34274212297231,-20.4676760976706,-15.304978135219,4.93568028397668,9.59008496866198,-28.9152711858444,-5.23744830144422,38.7676763958192,-6.44191309523016,-37.0896051101343,18.0628240985256
1.33340986003114,-20.3551368982827,-15.3646086968403,4.94492038014156,9.70484739451999,-28.7993878364905,-5.20343953853935,38.6050928781872,-6.36658303163054,-37.4469723995736,18.2965471503084
1.32656863691966,-20.2430208588763,-15.4242783974085,4.95362241534151,9.81389461946916,-28.6888369437197,-5.17016621380382,38.4513645137839,-6.29603448612977,-37.8043554441024,18.5281779433858
1.32155448539537,-20.1315532634277,-15.4838585072265,4.96166723098613,9.91723684645548,-28.5833231125892,-5.13741325701895,38.306219456693,-6.22960195423361,-38.1621340504022,18.7583445145993
1.31779287538316,-20.0209582927979,-15.5432302168007,4.96895913570623,10.0148901325811,-28.4825354216267,-5.10498171804215,38.1693483840311,-6.16662295424836,-38.5204908971815,18.9875950512554
1.31480453162148,-19.9114576341543,-15.6022834436678,4.97542553752739,10.1068784524152,-28.3861532374818,-5.07269152636742,38.0404021025995,-6.10644610477514,-38.8794104488388,19.216393875327
1.31220524086184,-19.8032691096583,-15.6609156131545,4.98101616821546,10.1932355095356,-28.2938518822016,-5.04038398256197,37.9189899075548,-6.04843870408041,-39.2386842742398,19.4451209687786
1.30970090515743,-19.6966053324531,-15.7190304473419,4.98570193980254,10.2740062383189,-28.2053080733378,-5.00792391551608,37.8046788782801,-5.99199372682577,-39.5979228426058,19.6740752649884
1.30707892169859,-19.5916724010332,-15.7765367987896,4.98947348437349,10.3492479605719,-28.1202050662887,-4.97520145791206,37.6969942879619,-5.93653618113999,-39.9565735794772,19.9034816895782
1.3041967110602,-19.4886686473028,-15.8333475696413,4.99233943960811,10.4190311866188,-28.0382374417179,-4.94213341504219,37.5954212907617,-5.88152879450386,-40.3139446296721,20.1335016766853
1.30096796428138,-19.3877834587842,-15.8893787600948,4.99432455328044,10.483440074156,-27.9591154991568,-4.90866422458946,37.4994080362126,-5.82647702904355,-40.6692334177876,20.3642466228112
1.29734699161487,-19.2891962005903,-15.9445486914526,4.99546768803602,10.5425725772903,-27.8825692364189,-4.8747665210309,37.4083703433001,-5.77093346743936,-41.0215587732042,20.5957934953364
1.29331146137888,-19.1930752662706,-15.9987774467943,4.99581981075649,10.596540329577,-27.8083519080724,-4.84044132302667,37.3216980433355,-5.71450165536563,-41.3699951498663,20.8282016237428
1.2888438251141,-19.0995772867194,-16.0519865660289,4.99544204622712,10.6454683064696,-27.7362431632391,-4.8057178544858,37.2387630690434,-5.65683952769563,-41.7136073616721,21.0615296007674
1.28391182846533,-19.0088465221635,-16.1040990221752,4.99440386190883,10.6894943051782,-27.6660517651319,-4.77065299388975,37.1589293268625,-5.59766257414123,-42.0514842914337,21.2958512212448
1.27844868573944,-18.9210144546249,-16.1550394928696,4.99278143174668,10.7287682678433,-27.5976178947443,-4.73533032974336,37.0815643406938,-5.5367469062538,-42.3827702017981,21.5312694785508
1.27233371842208,-18.8361995897937,-16.204734925028,4.99065620661941,10.7634514632648,-27.5308150412006,-4.69985879080442,37.0060525994996,-5.47393236727909,-42.7066925286211,21.7679277928429
1.26537448535268,-18.7545074712167,-16.2531153710113,4.98811370130944,10.7937155375316,-27.4655514827503,-4.66437082280416,36.9318104803138,-5.409125782264,-43.0225853032192,22.0060178239574
1.25729162699135,-18.6760309076776,-16.3001150536802,4.98524249478008,10.8197414451079,-27.4017713646069,-4.62902009909047,36.8583025544348,-5.34230438626254,-43.3299075868503,22.2457833986605
1.24770778370762,-18.6008504151082,-16.3456736003584,4.98213343199175,10.8417182757879,-27.3394553791876,-4.59397877733557,36.7850590197477,-5.27351940237609,-43.6282565098242,22.4875202550258
1.2361420316432,-18.5290348740091,-16.3897373768441,4.97887900945533,10.859841994634,-27.2786210457729,-4.55943434100029,36.7116939387421,-5.20289967495587,-43.917374714449,22.7315714909118
1.22201135535073,-18.4606423997195,-16.4322608533508,4.97557292028,10.8743141082645,-27.2193225676207,-4.52558608470991,36.6379239031793,-5.13065519983142,-44.1971522241606,22.9783188105573
1.20464084620456,-18.3957214157167,-16.4732079414248,4.97230972585458,10.8853402616254,-27.1616502177977,-4.49264131278777,36.563586696104,-5.05708033621694,-44.4676229955917,23.2281698864048
1.18328475479961,-18.334311910776,-16.5125532492408,4.96918461137104,10.8931287573836,-27.1057291769705,-4.46081132109935,36.4886594827775,-4.98255644054444,-44.728956631428,23.4815423680304
1.1571615157049,-18.2764468509255,-16.550283207948,4.96629317418261,10.8978889787897,-27.0517177243441,-4.43030722820413,36.4132760354918,-4.90755363908276,-44.9814459117845,23.7388452491571
1.1255078658128,-18.2221537079617,-16.586397022334,4.96373119108861,10.8998296888405,-26.9998046726206,-4.40133571653556,36.3377424837178,-4.83263145821657,-45.2254909224866,24.0004584303848
1.08766099085716,-18.1714560585559,-16.6209073962096,4.96159431541754,10.8991571749695,-26.9502059426801,-4.37409474088559,36.2625510814726,-4.75843805584179,-45.4615806152273,24.2667113856005
1.04318468268154,-18.1243752019865,-16.6538409794516,4.95997766701423,10.8960732096832,-26.9031601942998,-4.3487692620656,36.1883914991922,-4.68570783687526,-45.690272636165,24.5378618593751
0.992068257001465,-18.0809317409884,-16.685238482603,4.9589752954111,10.8907728045793,-26.8589234637416,-4.32552706969776,36.1161591778468,-4.61525728363006,-45.912172227722,24.8140755013191
