Finger Velocity,Scap_X,Scap_Y,Scap_Z,Shoulder horiz abd-adduction,Shoulder flexion-extension,Shoulder internal-external rotation,elbow flexion-extension,forearm pronation-supination,wrist flexion-extension,wrist radial-ulnar deviation
1.05211981275837,-23.5222074777429,-13.0089996938898,6.87014073461732,-5.63916185410853,-39.6865984157136,-11.7063593064422,54.2364771079267,-28.2314381672593,-2.71612423893198,-13.3944767806184
1.20904679181308,-23.5247571762187,-13.0023632758983,6.86358413326425,-5.64992680873758,-39.7029857902168,-11.7064053886041,54.2827181734118,-28.1507281633305,-2.51523984214197,-13.5685050246625
1.38035942712599,-23.5279007963637,-12.9939953922927,6.85608360565779,-5.65719199678249,-39.7215215387341,-11.7055678778398,54.3338683357301,-28.0494480492487,-2.33392888859639,-13.7264195990905
1.56495681832187,-23.5314940167473,-12.9839691303656,6.84765849277058,-5.6600363852781,-39.741843499536,-11.703492370769,54.3894048021242,-27.9257665284519,-2.17926976768493,-13.8620404877284
1.76161100555856,-23.5353618357586,-12.9723888981475,6.83833955078159,-5.65747775270721,-39.7634888454658,-11.6997670151237,54.4486141284197,-27.7779677041066,-2.05875558586966,-13.968783577029
1.96896133508185,-23.5393002884861,-12.9593876316834,6.82816692374701,-5.64847661895411,-39.785898359114,-11.6939230238405,54.5105841181023,-27.6044887854695,-1.98013941929998,-14.0398031253578
2.18551208524396,-23.543079045058,-12.9451229594782,6.81718759496219,-5.63194172051641,-39.8084230140553,-11.6854368273946,54.5741991977077,-27.4039572839755,-1.95126067487949,-14.0681543720205
2.40963479693855,-23.5464447806011,-12.929772508263,6.80545246686535,-5.60673727823748,-39.8303326554554,-11.6737341373204,54.6381397471358,-27.1752267982286,-1.97985679196523,-14.046972268497
2.63957554010622,-23.5491251733267,-12.9135285835415,6.7930132392791,-5.57169226398748,-39.8508265033637,-11.6581961299529,54.7008858126386,-26.917410456775,-2.07336487558273,-13.9696617745022
2.87346683338571,-23.5508333644539,-12.8965924896534,6.7799192605099,-5.52561180813582,-39.8690451520596,-11.6381678650192,54.7607255604558,-26.6299110812559,-2.23871811685788,-13.8300947265665
3.10934373278983,-23.5512727035377,-12.8791687630652,6.76621451807205,-5.46729081002785,-39.8840837110278,-11.6129689404284,54.8157687420024,-26.3124471473957,-2.4821421214551,-13.622807879015
3.3451635341995,-23.5501416072642,-12.8614595770396,6.75193491802917,-5.3955297246822,-39.8950057276601,-11.5819062619274,54.8639653373805,-25.9650736543472,-2.80895654314379,-13.3431963260414
3.57882851219716,-23.5471383776124,-12.8436595405576,6.73710597790815,-5.30915240209133,-39.9008575440131,-11.5442886822591,54.9031294202003,-25.5881970640759,-3.22338766995704,-12.9876961658321
3.80821111108375,-23.5419658516922,-12.8259510694834,6.72174103244176,-5.20702575038725,-39.9006827639714,-11.499443148075,54.9309681410942,-25.1825835461217,-3.72839785120561,-12.5539499435175
4.03118100111641,-23.534335784819,-12.8085004626989,6.70584002693821,-5.08808088306675,-39.8935365395277,-11.4467318929928,54.9451155624551,-24.7493598674383,-4.32553799111183,-12.0409480199567
4.24563341138563,-23.5239728954043,-12.7914547754345,6.68938894993421,-4.95133530115789,-39.8784994237909,-11.3855701378633,54.9431709003215,-24.2900064127697,-5.01482984909268,-11.4491385130462
4.44951815108702,-23.5106185220636,-12.7749395469061,6.67235993345126,-4.79591556320369,-39.8546905831833,-11.3154437077477,54.9227405498887,-23.8063420198684,-5.79468546611638,-10.7804979973957
4.64086873500309,-23.4940338601379,-12.7590574071642,6.65471202434084,-4.62107981531049,-39.8212802125162,-11.2359259508204,54.8814830958737,-23.3005005756361,-6.66187134334347,-10.0385550839566
4.8178310385643,-23.4740027585604,-12.7438875569336,6.63639260381318,-4.42623949264551,-39.7775010521721,-11.14669334712,54.8171563429915,-22.7748996443419,-7.61152459550431,-9.22835974947087
4.97869092429392,-23.4503340702311,-12.7294860846453,6.61733940519691,-4.21097946437615,-39.7226589598808,-11.0475392220358,54.7276652503773,-22.2322017702434,-8.63722680492888,-8.35639316196432
5.12190030565345,-23.4228635605379,-12.7158870579043,6.59748305325429,-3.97507587838567,-39.6561425325896,-10.9383850256534,54.6111095237569,-21.6752694795958,-9.73113850002834,-7.43041589060832
5.24610114668906,-23.3914553889796,-12.7031043034159,6.57675002313734,-3.71851097401051,-39.5774317995252,-10.819288698516,54.4658295195022,-21.1071153574749,-10.884193138699,-6.45925670832191
5.35014693636591,-23.3560031857915,-12.691133772549,6.55506589567746,-3.44148417829191,-39.4861060091704,-10.690449713491,54.2904490584017,-20.5308488480247,-12.0863446035208,-5.45254931956197
5.43312122457557,-23.3164307465919,-12.6799563821053,6.53235877138823,-3.14441889236425,-39.3818505079435,-10.5522104651,54.0839137506339,-19.9496215860807,-13.3268572032409,-4.42042959941909
5.49435286164604,-23.2726923635964,-12.6695412209306,6.50856270030841,-2.8279645093046,-39.2644626640009,-10.4050537802639,53.8455235098383,-19.3665731002845,-14.594622827167,-3.3732104398115
5.53342764357265,-23.2247728051021,-12.6598490185781,6.48362098841918,-2.49299337060514,-39.1338567411756,-10.2495964569778,53.5749580846582,-18.7847786472723,-15.8784869664954,-2.32105420232977
5.55019612962022,-23.172686949335,-12.650835777859,6.45748925240697,-2.14059254976014,-38.9900675902168,-10.0865789027014,53.2722946509563,-18.2072007685011,-17.1675643499534,-1.27366346196545
5.54477746565089,-23.1164790764895,-12.6424564763565,6.43013811134618,-1.77205053967881,-38.8332530040189,-9.91685113297857,52.9380167721371,-17.6366459241373,-18.4515261519909,-0.240008990441058
5.51755911349312,-23.0562218246754,-12.634668742484,6.40155542491217,-1.38883911426436,-38.66369458,-9.74135558276984,52.5730143326186,-17.0757272657082,-19.7208439232288,0.771889974072827
5.46919245165238,-22.992014821745,-12.6274364108476,6.37174801169773,-0.992590830113933,-38.4817969440537,-9.56110735548501,52.1785743646765,-16.5268342796763,-20.9669799999575,1.75512354731084
5.4005842732513,-22.9239830151278,-12.6207328618967,6.34074280632756,-0.585072818469765,-38.2880852166011,-9.37717266954684,51.7563630053641,-15.9921096924792,-22.1825193773185,2.70398354252334
5.31288426071414,-22.8522747341651,-12.6145440540572,6.30858743773914,-0.168157670188233,-38.0832006424777,-9.19064634763477,51.3083991207097,-15.4734336979194,-23.3612430672112,3.61399254066006
5.20746856076145,-22.7770595314268,-12.6088711627407,6.2753502309439,0.256207676496798,-37.8678943590157,-9.00262922477312,50.8370204028974,-14.972415266803,-24.4981471814645,4.48187663001355
5.08591961524155,-22.6985258588186,-12.6037327480559,6.24111965044763,0.68603407534278,-37.6430193341352,-8.81420633099755,50.3448429721261,-14.4903900341648,-25.5894150362822,5.30549202727558
4.95000242107394,-22.6168786402794,-12.5991663800491,6.20600321685109,1.11932234896572,-37.4095205638178,-8.6264266392884,49.8347156939083,-14.0284240358397,-26.6323513800985,6.08371747628386
4.80163739487487,-22.5323368062187,-12.5952296570999,6.17012594094152,1.55409453075824,-37.1684236747972,-8.44028506536569,49.3096705527521,-13.5873223921445,-27.6252885170128,6.81632456824067
4.64287000512337,-22.4451308562698,-12.5920005616833,6.13362833275652,1.98842325420594,-36.9208221332122,-8.2567072667884,48.7728705015602,-13.1676419239087,-28.5674738574098,7.50383724219757
4.47583731037518,-22.3555005162505,-12.5895771103677,6.09666405606033,2.42045846713375,-36.6678633111175,-8.0765376217513,48.2275562287744,-12.7697066445148,-29.4589475340914,8.14739007146521
4.30273151408608,-22.2636925518037,-12.5880762729044,6.05939730988763,2.84845078377758,-36.4107337058147,-7.90053058549595,47.6769932498435,-12.3936251066265,-30.3004174254318,8.7485928808815
4.12576063002413,-22.1699587949475,-12.5876321579365,6.02200002674001,3.27077095701009,-36.1506436373913,-7.72934543823865,47.1244206383852,-12.0393086964081,-31.0931374481277,9.30940708370202
3.94710637127995,-22.0745544309031,-12.5883934879903,5.98464898055629,3.68592514518826,-35.8888117648265,-7.56354426431349,46.5730025741861,-11.7064901545193,-31.8387934938533,9.83203710617637
3.76887946563372,-21.9777365806388,-12.5905204118946,5.94752289623512,4.09256584816243,-35.6264497593587,-7.40359284757563,46.025783712478,-11.3947418361637,-32.5393999975956,10.3188385229566
3.59307280538581,-21.8797631985522,-12.5941807277884,5.91079964648648,4.48949857948278,-35.3647474557919,-7.24986404346824,45.4856491833229,-11.1034934587015,-33.1972088990233,10.772243124319
3.42151320866942,-21.7808922844352,-12.5995456138659,5.87465361181286,4.87568451431536,-35.1048587708107,-7.10264310351181,44.9552898210001,-10.8320492829941,-33.8146317210124,11.1947000940832
3.25581313706032,-21.6813813857763,-12.6067849855432,5.83925326651519,5.25023949674549,-34.8478886369804,-6.96213439016686,44.4371730118672,-10.5796048110248,-34.3941746614549,11.5886317760511
3.09732447682542,-21.5814873431646,-12.6160626152955,5.80475903908748,5.61242989942427,-34.5948811566235,-6.82846893118071,43.9335193493586,-10.3452631519374,-34.9383859904668,11.9564021002883
2.94709737000588,-21.4814662109314,-12.6275311648754,5.77132148016231,5.96166589743462,-34.3468091340818,-6.70171231786074,43.4462851099812,-10.1280512123572,-35.4498146597765,12.3002955680451
2.80584789443361,-21.3815732696354,-12.6413272898133,5.73907975562605,6.29749274523564,-34.1045650991001,-6.5818725380235,42.9771504210574,-9.92693581228886,-35.930978824692,12.6225046943006
2.673938852683,-21.2820630379797,-12.6575669828273,5.70816046720071,6.61958063455653,-33.8689538885886,-6.46890743379748,42.5275128771727,-9.74083973514031,-36.3843428865676,12.9251239250815
2.55137770684514,-21.1831891894248,-12.6763413242191,5.6786767889146,6.92771367037007,-33.6406868101353,-6.36273157195718,42.0984862705244,-9.56865761664769,-36.8123016241924,13.2101482367244
2.43783453612142,-21.0852042827778,-12.6977128015852,5.65072789610119,7.22177844207303,-33.4203773712026,-6.26322240191163,41.6909040257759,-9.40927148436533,-37.2171699669744,13.4794748509268
2.33268078186087,-20.9883592259459,-12.7217123475896,5.62439865326291,7.50175259805165,-33.2085385262603,-6.17022565126958,41.3053268732112,-9.2615656895223,-37.6011769736743,13.734906737994
2.23504680715669,-20.8929024072747,-12.7483372233424,5.599759517995,7.76769376072031,-33.0055813725073,-6.08355997074598,40.9420542578454,-9.12444093511055,-37.9664626256091,13.978156809886
2.14389356736287,-20.7990784484501,-12.7775498466286,5.57686661148656,8.01972904783798,-32.8118152136366,-6.00302088858128,40.6011389676072,-8.99682710398674,-38.3150761227641,14.2108519054435
2.05809169144023,-20.7071265556296,-12.8092776302549,5.55576190351693,8.25804539472722,-32.6274489080699,-5.92838416783301,40.2824044683066,-8.87769462697121,-38.6489744903746,14.4345358373511
1.9765005435223,-20.6172784701545,-12.8434138586643,5.53647346159709,8.48288080364787,-32.4525934186721,-5.85940867566414,39.9854644511448,-8.76606419315214,-38.9700204775324,14.6506709211317
1.89804049052598,-20.5297560461697,-12.8798195930536,5.51901571959817,8.6945165856182,-32.2872654802124,-5.79583887243086,39.7097441224072,-8.66101467934255,-39.2799789675448,14.8606375699429
1.82175333690968,-20.4447685091621,-12.9183265576086,5.50338973115834,8.89327060908545,-32.1313922961374,-5.73740701446842,39.454502788188,-8.56168925153781,-39.5805114165832,15.0657317360584
1.74684813525183,-20.3625094753813,-12.9587409229938,5.48958338764611,9.07949152805859,-31.9848171674424,-5.6838351439923,39.2188573060998,-8.46729966148821,-39.8731681743517,15.267160210265
1.67273175970109,-20.2831538346449,-13.0008478694361,5.47757159822908,9.25355392704893,-31.8473059445321,-5.63483691644838,39.0018059903615,-8.37712882439734,-40.1593788822764,15.4660340322756
1.59902532720891,-20.2068546151762,-13.0444167821987,5.46731644814049,9.41585428967685,-31.7185541791756,-5.59011929287505,38.8022525679439,-8.29053181925664,-40.4404414401939,15.6633604865633
1.52556859078048,-20.1337399570899,-13.0892069080261,5.45876736801295,9.56680767232899,-31.5981948399061,-5.54938410732935,38.6190297945439,-8.20693549804169,-40.7175102451346,15.8600343321491
1.45241482359116,-20.0639103209881,-13.1349732832674,5.45186135992405,9.70684494586562,-31.4858064431596,-5.51232951260085,38.4509223538465,-8.12583691733572,-40.9915845403902,16.0568290302103
1.37981857996006,-19.9974360515355,-13.1814727340323,5.4465233324643,9.83641045941622,-31.3809214467476,-5.47865131204279,38.2966886860009,-8.04680081246877,-41.2634977984821,16.2543887888308
1.30821819709361,-19.9343554050639,-13.228469746624,5.4426665963701,9.95595998157346,-31.2830347536284,-5.4480441963459,38.1550814247369,-7.96945632465971,-41.5339091035904,16.4532222372965
1.23821410118495,-19.8746731367851,-13.2757420120769,5.44019356450465,10.0659587850519,-31.1916121826865,-5.42020291497345,38.024866167447,-7.89349317617288,-41.8032974676982,16.6536984670703
1.17054298046716,-19.8183597275845,-13.3230854606376,5.43899668736875,10.1668797596734,-31.1060987782949,-5.39482341973149,37.9048383554002,-7.81865747478792,-42.0719598889407,16.8560460367961
1.10604676744667,-19.7653513123097,-13.370318619831,5.43895964063988,10.2592014631629,-31.025926849514,-5.37160402347851,37.793838096885,-7.74474731584401,-42.3400137619259,17.0603553561963
1.04563429944784,-19.7155503501911,-13.4172861537876,5.43995876636566,10.3434060461669,-30.950523649967,-5.3502466218482,37.6907628214137,-7.67160833016026,-42.607404017995,17.2665846667068
0.990232870346196,-19.6688270530452,-13.4638614718677,5.44186475478974,10.4199770131877,-30.8793186285513,-5.33045802876455,37.5945777083769,-7.59912929375918,-42.8739151233508,17.4745696413525
0.940727316006783,-19.6250215588618,-13.5099483299267,5.44454453891332,10.4893968021268,-30.8117501983596,-5.31195147375039,37.5043238893774,-7.52723787367658,-43.1391877820659,17.6840364335412
0.897886676439101,-19.5839468090306,-13.555481385857,5.44786335831285,10.5521441814197,-30.7472719864031,-5.29444829730528,37.4191244784467,-7.45589654348682,-43.4027398783101,17.8946178138571
0.862283436411695,-19.5453920590795,-13.600425710785,5.45168693257163,10.6086914770349,-30.6853585397772,-5.2776798592821,37.3381885357486,-7.38509867243213,-43.6639908884471,18.1058718576103
0.834217127359759,-19.5091269278948,-13.6447752969105,5.45588366945568,10.6595016549386,-30.6255104746294,-5.26138964684091,37.2608131154345,-7.31486477601776,-43.9222887620205,18.3173025053249
0.813659711438254,-19.4749058715294,-13.6885506397565,5.46032682187466,10.7050253001601,-30.5672590626234,-5.24533553873315,37.186383583773,-7.24523890882729,-44.1769381492057,18.5283812306922
0.800240182908004,-19.4424729564191,-13.7317955032902,5.46489650460314,10.7456975503847,-30.5101702553416,-5.22929215804057,37.1143724157441,-7.17628517594456,-44.4272288325173,18.738569019801
0.793277440764539,-19.4115668025836,-13.7745729988978,5.46948148913609,10.7819350568449,-30.453848150221,-5.21305323081233,37.044336684571,-7.10808433651029,-44.6724632704397,18.9473378847396
0.791856212604758,-19.3819255682877,-13.8169611242371,5.47398071183964,10.814133056383,-30.3979379024328,-5.19643386351352,36.9759144503909,-7.0407304753835,-44.9119822606525,19.1541911942107
0.794927952375558,-19.3532918519654,-13.8590479187853,5.4783044524394,10.8426626464977,-30.3421280855166,-5.1792726542001,36.9088202366199,-6.97432773044505,-45.1451878817607,19.3586821958688
0.801413897321484,-19.3254173940899,-13.9009264029489,5.48237516235853,10.867868360145,-30.286152498929,-5.16143355729686,36.8428397623966,-6.90898708336722,-45.3715630743238,19.5604302216487
0.810291853278519,-19.2980674709537,-13.9426894773668,5.48612794283745,10.8900661372014,-30.2297914135139,-5.14280742867671,36.7778240821963,-6.84482324567384,-45.590687454969,19.7591341983533
0.820657425318067,-19.2710248843507,-13.9844249650221,5.48951068949847,10.9095417829187,-30.1728722389878,-5.12331318606016,36.7136832715849,-6.78195169327887,-45.8022491907984,19.9545832211495
0.83175898685802,-19.2440934662989,-14.0262109761331,5.4924839315688,10.926549990226,-30.1152695945455,-5.10289852815044,36.6503797905416,-6.72048591772911,-46.0060529664654,20.1466640783954
0.843010824447354,-19.2171010359179,-14.0681117622334,5.49502040010231,10.9413139838389,-30.0569047665602,-5.08154016367582,36.5879216506091,-6.66053497101301,-46.2020242342083,20.3353657342733
0.853990547188599,-19.1899017651548,-14.1101742033272,5.49710436200333,10.9540258220965,-29.9977445450704,-5.05924351075072,36.5263555066612,-6.60220138477842,-46.3902100467084,20.5207808752179
0.864426307397451,-19.1623779290686,-14.1524250443159,5.49873075815438,10.9648473691231,-29.9377994410672,-5.03604184135038,36.4657597862825,-6.54557954615406,-46.5707768431367,20.7031047005663
0.87417798101545,-19.1344410327779,-14.194868966362,5.49990418654192,10.9739119261412,-29.8771212984917,-5.01199486693648,36.4062379596786,-6.49075461204858,-46.7440055916147,20.8826311784065
0.883215046282472,-19.1060323203368,-14.2374875460551,5.500637775463,10.9813264870482,-29.8158003284969,-4.98718678750815,36.3479120419911,-6.4378020391914,-46.9102846875633,21.0597469954747
0.89159283959917,-19.0771226815073,-14.2802391210715,5.50095199666734,10.9871745602085,-29.7539616080591,-4.96172385326022,36.2909164081518,-6.3867877925857,-47.0701009833,21.234923424537
0.899428226248005,-19.0477119815873,-14.3230595468856,5.50087347160125,10.9915194758516,-29.691761098293,-4.93573151076225,36.2353919873057,-6.33776926753898,-47.2240292980535,21.4087063362143
0.906875435328727,-19.0178278477188,-14.3658637952339,5.50043382355355,10.9944080764995,-29.6293812490303,-4.90935122010308,36.1814808902555,-6.29079692426968,-47.3727207305545,21.5817046001369
0.914102764420374,-18.9875239528705,-14.4085483110435,5.49966862326368,10.9958746679109,-29.5670262667821,-4.8827370341298,36.1293215119663,-6.24591659764227,-47.5168900595599,21.754577142409
0.921270946308448,-18.95687784584,-14.4509940121674,5.49861646598159,10.9959450927215,-29.5049171340362,-4.85605202747014,36.079044143972,-6.20317241411151,-47.6573024691921,21.9280189415068
0.928514082143983,-18.92598838141,-14.4930697901735,5.49731820572312,10.9946407801525,-29.4432864771321,-4.82946465576219,36.0307671289462,-6.16261022498041,-47.7947597852492,22.1027462488579
0.935924094011052,-18.8949728089111,-14.5346363550565,5.49581635926045,10.9919826232455,-29.3823733845923,-4.80314511930667,35.9845935910963,-6.12428144749643,-47.9300863662235,22.2794813124943
0.943539574132608,-18.8639635807158,-14.575550263387,5.49415467938317,10.9879945403883,-29.3224182763801,-4.77726180365899,35.9406087803289,-6.08824718959512,-48.0641147605882,22.4589368603453
0.951339686065902,-18.833104945949,-14.6156679759786,5.49237788485784,10.982706591514,-29.2636579187513,-4.75197787288736,35.8988780738122,-6.05458251732931,-48.1976712142658,22.6418005645094
0.959243428245944,-18.8025493997604,-14.6548498037454,5.49053152425742,10.9761575415562,-29.2063206723838,-4.72744809642187,35.8594456837029,-6.02338070582569,-48.331561085969,22.8287196671974
0.967114163784051,-18.7724540647808,-14.692963615061,5.48866194371694,10.9683967921612,-29.1506220556284,-4.70381599257081,35.8223341227096,-5.99475729821783,-48.4665542111161,23.0202859166128
0.974768934260953,-18.7429770881438,-14.7298881919011,5.48681632524841,10.9594856333319,-29.0967607005821,-4.68121136594073,35.7875444793302,-5.96885378809357,-48.6033702611482,23.2170209479624
0.981991786408341,-18.7142741430109,-14.7655161351589,5.48504276207722,10.9494977961374,-29.0449147759357,-4.6597483004789,35.7550575524222,-5.94584074378055,-48.7426641821418,23.4193622542168
0.988550200143481,-18.6864951251504,-14.7997562350449,5.48339034002645,10.938519313131,-28.9952389434881,-4.63952364761552,35.7248358899305,-5.92592020682177,-48.8850118639383,23.6276499207184
