Finger Velocity,Scap_X,Scap_Y,Scap_Z,Shoulder horiz abd-adduction,Shoulder flexion-extension,Shoulder internal-external rotation,elbow flexion-extension,forearm pronation-supination,wrist flexion-extension,wrist radial-ulnar deviation
0.858106544658358,-27.013532324542,-13.0966038168247,5.43505178671676,-6.40151409161,-39.8992395537128,-12.3361834743972,55.7229526093734,-26.7045020111886,-1.16622144835145,-13.4931975671469
0.86113930219984,-27.0295032252873,-13.0939133633305,5.45126065734964,-6.48959748390286,-39.8111494293567,-12.4302340778026,55.7890511067415,-26.3989632035245,-0.748989088679783,-13.8586701084872
1.11961601265488,-27.048984498265,-13.0899945684345,5.46850640687215,-6.59224310298625,-39.6993897871077,-12.5336828681233,55.8851024134772,-26.0495988176718,-0.305099617692247,-14.2233121324971
1.58281441595562,-27.0723172586328,-13.0844627788277,5.48662492950766,-6.70957974724557,-39.5613095061875,-12.645812165414,56.0146397567952,-25.6547994741679,0.159784217439147,-14.5786778393051
2.18284905701572,-27.0998222893456,-13.0768904870151,5.50541625004891,-6.84147555453997,-39.394256463205,-12.7656541160904,56.1810806481703,-25.213288404258,0.639380788862823,-14.915980804253
2.88623545365496,-27.1317931378626,-13.066809294374,5.52464516813289,-6.98751997192515,-39.1956125101706,-12.8919867062647,56.3876653558168,-24.7241394874928,1.1270724411981,-15.2264527091987
3.67742783497714,-27.1684892148731,-13.0537127672241,5.54404246744649,-7.14701243032499,-38.962830472966,-13.0233363057038,56.6373968488498,-24.1867908912947,1.61621005138917,-15.5017166520162
4.54755016251195,-27.2101290384066,-13.0370601623036,5.56330661552928,-7.31895865955468,-38.6934725595195,-13.157987500443,56.9329834820888,-23.6010553981726,2.10041414829867,-15.7341461944201
5.49000880521532,-27.2568837823675,-13.0162809579756,5.58210587282947,-7.50207528123626,-38.3852494785893,-13.2940007434537,57.2767854490763,-22.9671287205201,2.57384872560979,-15.9171827281114
6.4987933227888,-27.3088712981758,-12.9907800869836,5.60008073476114,-7.69480296466074,-38.0360594933308,-13.429238055577,57.670765761409,-22.2855971537377,3.03144826954358,-16.0455885035284
7.56777745299793,-27.3661507791316,-12.9599437295795,5.61684664500538,-7.8953280560064,-37.6440265671309,-13.5613966596529,58.1164462578743,-21.5574457736492,3.46908497330321,-16.115619753071
8.69042545954145,-27.4287182286208,-12.9231454961894,5.63199693777671,-8.10161221992573,-37.2075367042586,-13.6880500491334,58.6148689426045,-20.7840680400847,3.88367028860596,-16.1251124154456
9.85968171017833,-27.4965028763366,-12.8797528094589,5.64510598731441,-8.31142927713554,-36.7252715532869,-13.8066955993332,59.166562819885,-19.9672771540525,4.27319165528203,-16.0734807764425
11.0679528567271,-27.5693646633327,-12.8291332882039,5.65573256172877,-8.52240808923391,-36.1962383401223,-13.9148074498087,59.7715163457964,-19.1093188812738,4.63669062927432,-15.9616359960494
12.3071420621783,-27.6470928892843,-12.770660940858,5.66342339347999,-8.73208004592325,-35.6197952397944,-14.0098930512761,60.4291556588563,-18.2128848530629,4.97419230464981,-15.7918365191341
13.5687152897039,-27.7294060855706,-12.7037219925029,5.66771698806622,-8.93792947428065,-34.9956713841898,-14.0895515132149,61.1383288844702,-17.2811246331559,5.28659785225921,-15.5674856197562
14.8437886916256,-27.8159531467084,-12.6277201950101,5.66814769384107,-9.13744513948527,-34.3239808354456,-14.151531736049,61.8972970236632,-16.3176541476219,5.57555239851631,-15.2928928998881
16.1232303145536,-27.9063157212984,-12.5420815010137,5.66425004865844,-9.32817095652948,-33.6052300312195,-14.1937882800962,62.7037322105917,-15.3265574903764,5.84329972102714,-14.9730167033399
17.3977713601691,-28.0000118330798,-12.4462580172661,5.6555634050365,-9.50775409104074,-32.8403184219629,-14.2145330149265,63.5547244122053,-14.3123787373567,6.09253374109779,-14.6132034293301
18.6581232635819,-28.096500673093,-12.3397311902169,5.64163681752522,-9.67398880064149,-32.0305322528307,-14.2122807965555,64.4467978899382,-13.2801003248751,6.32625488160301,-14.2189379470604
19.8950973980339,-28.1951884745816,-12.2220142141484,5.62203415559731,-9.82485465235516,-31.1775316706504,-14.185887711661,65.375938882174,-12.2351048518773,6.54763729633807,-13.79561700481
21.099724537563,-28.2954353528461,-12.0926536870524,5.59633938301419,-9.95854812070505,-30.2833315440118,-14.1345807747887,66.3376359298,-11.1831179111219,6.75991096577199,-13.3483549344504
22.2633714339448,-28.3965629633255,-11.9512305714134,5.5641619213908,-10.0735069812067,-29.3502765647886,-14.0579783340267,67.3269339968101,-10.1301307590283,6.96626083443009,-12.8818282522152
23.3778520557031,-28.4978628034953,-11.7973605490564,5.52514199541811,-10.1684273182977,-28.3810113467973,-13.9561008070319,68.3385029993136,-9.08230323948742,7.16974361232121,-12.4001630543274
24.4355312291355,-28.5986049595489,-11.6306938923325,5.47895584464579,-10.2422733273913,-27.3784463482009,-13.8293717121492,69.3667205517029,-8.04584923201917,7.37322159631377,-11.9068664579362
25.4294186313969,-28.6980470821707,-11.4509150023058,5.42532068290651,-10.2942803806383,-26.3457205216436,-13.6786092640835,70.4057677165369,-7.02690877287575,7.57931188979332,-11.4048008076227
26.3532513216321,-28.795443373403,-11.2577417788036,5.36399928762231,-10.3239520319554,-25.2861616464655,-13.5050090641094,71.4497354056641,-6.03141263319541,7.79034873414233,-10.8961970660564
27.2015632602999,-28.8900533806967,-11.0509249842508,5.29480410352494,-10.3310517628493,-24.2032453218129,-13.3101186305162,72.4927379692493,-5.06494627425129,8.00835635110417,-10.3827018677566
27.9697405580879,-28.9811504197862,-10.8302477498576,5.21760074877729,-10.3155903314133,-23.100553592831,-13.0958046837932,73.5290295871099,-4.13262054788233,8.23502975244134,-9.86545124529731
28.6540615108598,-29.0680294779558,-10.5955253573995,5.13231081880866,-10.2778095966873,-21.9817341406275,-12.8642142209749,74.553118482979,-3.23895619841355,8.47172139176001,-9.3451630994517
29.2517208111168,-29.1500144802218,-10.3466054147628,5.0389138965155,-10.2181636587553,-20.8504608916654,-12.6177304908014,75.5598738102259,-2.38778820671824,8.71943224559731,-8.82224009353147
29.7608376737147,-29.2264648335231,-10.0833685245474,4.93744869648393,-10.1372980905968,-19.7103967983705,-12.3589250288839,76.5446203408042,-1.58219446026564,8.97880676544455,-8.29687478107807
30.1804479676404,-29.2967811985047,-9.80572951575938,4.82801329307407,-10.0360279525586,-18.5651594173969,-12.090506938221,77.5032167980856,-0.824451367536036,9.25013194000051,-7.76914938068056
30.5104807996587,-29.3604104716084,-9.51363926459308,4.7107644056116,-9.91531518792943,-17.4182897747939,-11.8152706037332,78.4321147231859,-0.116017114954293,9.5333412976082,-7.23912365305272
30.7517203424821,-29.4168499857858,-9.20708707404562,4.58591573931769,-9.77624591233237,-16.2732248665213,-11.5360430066734,79.3283960298103,0.542458488380206,9.82802501180134,-6.70690576609071
30.9057540324833,-29.4656509520236,-8.88610352364518,4.45373541011983,-9.6200080409501,-15.133274002327,-11.255631758092,80.1897887442966,1.15110006403423,10.1334473502052,-6.17270276062221
30.974908572448,-29.5064211675313,-8.55076365172356,4.31454251548905,-9.44786964683133,-14.0015990637325,-10.976774905369,81.0146617080761,1.71075212922566,10.448572524206,-5.63684910940139
30.9621754559261,-29.5388270155218,-8.2011903006605,4.16870294919361,-9.26115840147042,-12.8811986186274,-10.702093485789,81.8020001237253,2.2229080922688,10.7720995507305,-5.09981373524333
30.8711279737767,-29.5625947807401,-7.83755744225556,4.01662459108737,-9.06124240572809,-11.774895722762,-10.4340477084043,82.5513646751452,2.68962711609095,11.1025060710426,-4.562187574872
30.7058318628718,-29.5775113055935,-7.46009330515525,3.85875202987346,-8.84951267283394,-10.6853291454409,-10.1748975432371,83.2628375116539,3.11344309852765,11.4381002893655,-4.02465521087918
30.4707519040412,-29.5834240133233,-7.06908314669433,3.69556099390749,-8.62736747741868,-9.6149476826596,-9.92666838871,83.9369586553932,3.49726971724669,11.7770794362278,-3.48795512819774
30.1706568638549,-29.5802403272323,-6.66487154240098,3.52755266943551,-8.39619873300803,-8.56600716663622,-9.69112237539387,84.5746563975294,3.8443050605823,12.1175925531794,-2.952833702702
29.8105251960048,-29.5679265200956,-6.24786410078159,3.35524807558147,-8.1573804987265,-7.54056974888291,-9.46973574590006,85.1771750346134,4.15793887527742,12.457805006999,-2.41999807509571
29.3954538671284,-29.546506037736,-5.81852854321002,3.17918264253916,-7.91225963976352,-6.54050502524974,-9.26368262692623,85.7460029175908,4.44166494213124,12.7959619847743,-1.89007264344139
28.930572544917,-29.5160573563886,-5.3773951154633,2.99990110821663,-7.66214857772908,-5.56749258237718,-9.07382538143756,86.2828033050496,4.69900055340771,13.1304482775258,-1.3635631154621
28.4209651817029,-29.4767114529277,-4.92505631604592,2.81795281411103,-7.40831997497925,-4.62302557150875,-8.90071159797324,86.789349989902,4.93341451872463,13.4598419050682,-0.840831019767884
27.8716007461882,-29.4286489846818,-4.46216593592805,2.63388744761383,-7.15200311277694,-3.70841495451387,-8.74457764022115,87.2674691509709,5.14826458598846,13.7829595448943,-0.322080406542411
27.2872745053971,-29.3720972844379,-3.98943740892301,2.4482512474981,-6.89438165701095,-2.82479411339535,-8.60535854243804,87.7189883952339,5.34674466153113,14.098892266835,0.192642722836656
26.6725608488158,-29.3073272720981,-3.50764147946105,2.2615836621343,-6.63659246459717,-1.9731235623662,-8.4827038944373,88.1456935202905,5.53184178553756,14.4070306781366,0.703438843378814
26.0317781924121,-29.234650368432,-3.01760320797208,2.07441442586999,-6.37972507369385,-1.15419555004204,-8.37599921577496,88.5492931569259,5.70630249409765,14.707079164105,1.21053275495476
25.3689660217611,-29.1544154738662,-2.52019834680582,1.88726099875784,-6.12482154182567,-0.368638395565177,-8.28439217655844,88.9313911600702,5.87260798610606,14.9990593967536,1.71424317246312
24.6878736544233,-29.067006052112,-2.0163491210796,1.70062629899438,-5.87287634029287,0.383079526030068,-8.2068228864323,89.2934663990859,6.0329573940699,15.2833036549125,2.2149468726782
23.9919598477095,-28.9728373380027,-1.5070194348952,1.51499664632685,-5.62483606892574,1.10064614795363,-8.14205735257361,89.6368594398807,6.18925839857067,15.5604387704738,2.71304043752712
23.2844019747138,-28.8723536715727,-0.993209501843361,1.33083983025754,-5.38159881434554,1.78390233495803,-8.08872311902817,89.962765498578,6.34312439523079,15.8313617071826,3.20890260223556
22.5681131623645,-28.7660259445842,-0.475949885685673,1.14860322235295,-5.14401303585966,2.43283860242215,-8.04534605990352,90.2722329714992,6.49587740418963,16.097207899568,3.70285994951998
21.8457655489602,-28.6543491295223,0.0437050548433443,0.968711868051128,-4.91287592782057,3.04759172923742,-8.01038730969931,90.5661668021575,6.64855590392936,16.3593135398872,4.19515821784765
21.1198176873669,-28.537839845215,0.564684294924319,0.79156651672983,-4.68893127579156,3.62844106341371,-7.98227936379202,90.8453359266171,6.80192677994652,16.6191730179932,4.68594085904484
20.3925440980532,-28.417033902408,1.08590778762645,0.617541575110823,-4.47286688888159,4.17580434798781,-7.95946046058913,91.1103840395559,6.95650060889468,16.8783927127473,5.17523575223771
19.666065059564,-28.2924837718434,1.60629453128993,0.446982995557778,-4.26531174030551,4.69023293390769,-7.94040646160066,91.3618429405654,7.11254954996359,17.1386423220079,5.66295023505174
18.9423749013789,-28.1647559258891,2.12477094285572,0.28020613492956,-4.06683297716975,5.17240628492389,-7.92365957354505,91.600147748765,7.27012718444907,17.4016049145845,6.14887392720727
18.2233673177412,-28.0344280157723,2.6402794012261,0.117493638133946,-3.87793297240107,5.6231257121403,-7.9078533999561,91.8256533089452,7.42908972798865,17.6689268921174,6.63268825563599
17.5108565292006,-27.9020858531881,3.15178681387649,-0.040906588547405,-3.69904659174254,6.04330730063819,-7.89173396258295,92.0386511509709,7.58911813298618,17.9421690446954,7.11398117705203
16.8065934577616,-27.7683201652438,3.65829305499353,-0.194783246174398,-3.53053883899823,6.43397400932035,-7.87417649184767,92.2393864054397,7.74974069502782,18.2227598468745,7.59226534605812
16.1122764286507,-27.6337230880831,4.15883912065314,-0.343963290599072,-3.3727030241323,6.79624694249966,-7.8541979433967,92.4280741238196,7.91035586686486,18.5119520553744,8.06699789364789
15.4295562462941,-27.49888436274,4.65251484593982,-0.488313306557727,-3.22575957268967,7.13133581025715,-7.83096534273584,92.6049145011,8.07025505259734,18.8107835410951,8.53760005395345
14.7600357975305,-27.3643872023743,5.13846603602315,-0.627740566951618,-3.0898555632085,7.4405286131466,-7.80380018352519,92.7701065529957,8.22864519026869,19.1200431408195,9.00347509412539
14.1052645995447,-27.2308038162876,5.61590088286833,-0.762193737102815,-2.96506504432631,7.72518060475795,-7.77217920395226,92.9238598592926,8.38467093174001,19.4402421767161,9.46402334149517
13.4667289265712,-27.098690603529,6.08409556948126,-0.891663173144183,-2.85139014727058,7.9867026054619,-7.73573193643143,93.0664040535039,8.53743620638873,19.771592179317,9.91865352292095
12.8458383157756,-26.9685830654235,6.54239899727108,-1.01618074801214,-2.74876297416703,8.2265487657539,-7.69423546301551,93.1979958190407,8.68602492744086,20.1139892615315,10.3667900817855
12.2439093703483,-26.8409905278973,6.99023660365382,-1.1358191291096,-2.65704821159589,8.44620390709543,-7.64760680711024,93.3189232447672,8.82952058227894,20.4670055198966,10.8078765721917
11.6621478509265,-26.7163908055647,7.42711326604189,-1.25069043739944,-2.57604639720362,8.64717059463113,-7.59589335253596,93.4295074997397,8.96702445141473,20.8298877698225,11.2413756075006
11.1016300806749,-26.5952249732489,7.85261531579985,-1.36094423965467,-2.50549775791377,8.83095611151653,-7.53926161725497,93.5301019062206,9.0976722290021,21.2015638314207,11.6667661232583
10.5632846905183,-26.4778924282929,8.26641170680308,-1.46676485776024,-2.44508654141455,8.99905950940199,-7.47798464497787,93.6210886120249,9.22064886801895,21.5806564527396,12.0835388782158
10.0478757039367,-26.3647464221916,8.66825438865763,-1.56836801422413,-2.39444577790772,9.15295891362081,-7.4124282343296,93.702873175181,9.33520153689152,21.9655047846777,12.4911911643015
9.55598790817027,-26.2560902148972,9.05797792192213,-1.66599686842711,-2.35316243392993,9.29409927154178,-7.34303620965554,93.7758774678356,9.44065063726299,22.3541931193376,12.8892216500131
9.08801538076854,-26.152173970729,9.43549835197543,-1.75991753328192,-2.32078294444158,9.42388074252233,-7.270314946383,93.8405313784373,9.53639887789332,22.7445863919895,13.2771261685292
8.64415393467896,-26.053192481703,9.80081134310728,-1.85041419506463,-2.29681912063882,9.54364792611456,-7.19481739179998,93.897263837215,9.62193841509379,23.1343717414675,13.6543951039534
8.22439810712615,-25.9592837742436,10.1539895700751,-1.93778398634674,-2.28075442410728,9.65468010715889,-7.11712686454507,93.9464937056754,9.69685605631076,23.5211052285596,14.0205128430154
7.82854314273731,-25.8705286251112,10.4951793673613,-2.02233177950658,-2.27205057748012,9.75818266806193,-7.03784096426423,93.9886210551819,9.76083649492745,23.9022626300089,14.3749595598007
7.45619220715317,-25.7869509801712,10.8245966428714,-2.10436507387111,-2.27015445515411,9.8552797878716,-6.95755596252841,94.0240193149707,9.81366352069554,24.2752930658973,14.7172154017283
7.10676881593644,-25.7085192380423,11.1425220736531,-2.18418914154243,-2.27450517075388,9.94700851640069,-6.87685206498014,94.0530287019739,9.85521914550419,24.6376740869901,15.0467669560297
6.77953418436397,-25.6351483355379,11.4492956205686,-2.26210257469773,-2.28454125394696,10.0343142754798,-6.79627992912477,94.0759512615054,9.88548060396192,24.9869667517053,15.3631157052269
6.47360891449265,-25.566702558892,11.7453104290504,-2.33839334204042,-2.29970778839672,10.1180477963776,-6.71634879372123,94.0930477550892,9.90451523256502,25.3208691713658,15.6657880385942
6.18799816220118,-25.5029990052152,12.0310062200662,-2.4133354189227,-2.31946336566932,10.1989634579622,-6.63751652438291,94.1045365307083,9.9124732965743,25.6372670058947,15.9543462843756
5.92161919871679,-25.4438116283079,12.306862309625,-2.48718601242909,-2.34328669888126,10.2777189533541,-6.56018180413607,94.1105944013259,9.90957891320665,25.9342794478756,16.228400166477
5.67333012772736,-25.3888758166891,12.5733904174752,-2.56018336759221,-2.37068273613279,10.3548761885595,-6.48467859959115,94.1113594433578,9.8961193051695,26.210299337103,16.4876180660347
5.44195846303558,-25.3378934661536,12.8311274324194,-2.63254511845143,-2.40118811678748,10.4309033033773,-6.41127292298984,94.1069355169115,9.87243270313368,26.4640261999041,16.7317374774963
5.22632832311029,-25.290538521597,13.0806282954057,-2.70446713786079,-2.4343758225666,10.5061776981419,-6.34016180294618,94.0973982151746,9.83889529301893,26.6944912053542,16.9605740822982
5.02528515291288,-25.2464629691474,13.3224591476958,-2.77612284013597,-2.46985888972863,10.580989945684,-6.27147428701152,94.082801879477,9.79590766432951,26.9010732752845,17.1740289164137
4.83771712027758,-25.2053032551715,13.5571908736507,-2.84766289699514,-2.50729306830342,10.6555484646103,-6.20527423730439,94.0631872736524,9.74388124725252,27.0835058876922,17.3720931925169
4.66257262303041,-25.1666870906814,13.7853931455389,-2.9192153350156,-2.54637834113834,10.7299848292131,-6.14156464961785,94.0385894998237,9.68322522139395,27.2418744758161,17.5548504723131
4.49887364789639,-25.1302405687185,14.0076290485064,-2.99088598727283,-2.58685925287888,10.8043595974157,-6.08029322293155,94.0090457604904,9.61433434046776,27.3766047171084,17.7224760677984
4.3457250083737,-25.0955954824371,14.2244503270279,-3.06275927086336,-2.62852404881445,10.8786685545677,-6.02135892118223,93.9746026274941,9.53757805530659,27.4884423737138,17.8752337469213
4.20231972828011,-25.0623966904773,14.4363932547513,-3.13489925737363,-2.67120268073177,10.9528492943353,-5.96461929151975,93.9353225593156,9.45329124226287,27.5784256433853,18.0134699853571
4.06794101287336,-25.0303093441055,14.6439750963258,-3.20735099799035,-2.7147637886641,11.0267880783498,-5.90989832328385,93.891289501034,9.36176675939194,27.6478511872996,18.1376061196721
3.94196135358502,-24.9990257753719,14.8476911087465,-3.28014205985702,-2.7591108016604,11.1003269248913,-5.85699464295566,93.8426134910004,9.26324995991373,27.6982351205315,18.248128820295
3.82383934853485,-24.9682718477089,15.0480120207295,-3.35328422457673,-2.80417731770906,11.1732708736856,-5.80568984021515,93.7894342719903,9.15793519834062,27.7312702967154,18.3455793228897
3.71311479942076,-24.9378125844465,15.245381927493,-3.42677529276427,-2.84992193558018,11.2453953662928,-5.75575671178026,93.7319239556107,9.04596428417166,27.7487812131317,18.4305418365289
3.60940258071687,-24.9074569106714,15.4402165418755,-3.50060093111323,-2.8963227320363,11.3164536766551,-5.70696719934819,93.6702888168763,8.9274267839499,27.7526778298819,18.5036314927452
3.5123856855271,-24.8770613670979,15.6329017502062,-3.57473649290544,-2.94337160647269,11.3861843255702,-5.65909979261321,93.6047703045523,8.80236204449425,27.7449095541167,18.5654821292579
3.42180774953451,-24.8465326820521,15.8237924325561,-3.64914874194275,-2.99106873890712,11.454318412574,-5.61194617335745,93.5356453464845,8.67076279600935,27.7274205897348,18.6167341379752
3.33746525388649,-24.8158291212828,16.0132115206332,-3.72379741493485,-3.03941741058644,11.5205867942588,-5.56531689642064,93.4632260130662,8.53258017988822,27.7021077823263,18.6580225614205
3.25919952046894,-24.784960575272,16.201449280212,-3.79863656764488,-3.08841941098131,11.5847270277553,-5.51904594108855,93.3878585833891,8.38773002690092,27.6707819864544,18.6899655986038
