Finger Velocity,Scap_X,Scap_Y,Scap_Z,Shoulder horiz abd-adduction,Shoulder flexion-extension,Shoulder internal-external rotation,elbow flexion-extension,forearm pronation-supination,wrist flexion-extension,wrist radial-ulnar deviation
1.20133128964772,-18.6183564419932,-12.6232019664656,6.23690300811647,-3.00043551550753,-41.2407857598555,-7.72358630829901,48.7917527813838,-27.6140175681008,-2.0551995683746,-8.48910480135851
1.39140851202996,-18.6069133155575,-12.6032402607882,6.22794552160955,-3.00393911869986,-41.2856399188173,-7.74051783074984,48.7900105196592,-27.5515498505782,-2.71194368080085,-7.88008733560931
1.59053344189378,-18.5951559261377,-12.5818818037221,6.21707286679597,-3.00573085736926,-41.3346849574054,-7.75811208850359,48.79078502799,-27.4749054119922,-3.4248970200437,-7.22785400090455
1.79740310836704,-18.5831548459559,-12.5592692025515,6.20424496816886,-3.0053745451855,-41.3875503759798,-7.77610604662734,48.7943471063914,-27.3824784672682,-4.18996794486147,-6.53733764588028
2.01059383335505,-18.5709795272639,-12.5355711351604,6.18944905375621,-3.00240003067637,-41.4437602431114,-7.79419687737896,48.8009248573875,-27.2726661808287,-5.00197397292115,-5.81446605467281
2.22857216613498,-18.558695377068,-12.5109802499528,6.17270180587127,-2.99630685576993,-41.502733071484,-7.81204475451816,48.8106922180848,-27.1438930448038,-5.85477100397518,-5.06602450081212
2.4497101924961,-18.5463605688251,-12.4857104638084,6.15405102640372,-2.9865688041825,-41.5637837016999,-7.82927685309231,48.8237573570484,-26.9946369423163,-6.74143317546521,-4.29947014769768
2.67230412566677,-18.5340226502065,-12.459993712515,6.13357673197576,-2.97263930238711,-41.6261272717329,-7.84549252691467,48.8401511853832,-26.8234565098964,-7.65447493247718,-3.52270660038047
2.89459541638177,-18.5217150236157,-12.4340762329555,6.11139160869851,-2.9539576122363,-41.6888853011477,-7.8602695957696,48.8598162632649,-26.6290193242854,-8.586102701578,-2.7438309760916
3.11479376892389,-18.509453393736,-12.40821447825,6.08764077505817,-2.92995573393925,-41.7510938665341,-7.87317163820506,48.8825964149708,-26.4101303472386,-9.52848050743609,-1.97086880739559
3.33110151536806,-18.4972322924169,-12.3826707833521,6.06250082241022,-2.90006592089894,-41.8117137905124,-7.8837561541064,48.9082273943545,-26.1657599759843,-10.4739924667071,-1.21151342527118
3.54173882680753,-18.4850218039341,-12.3577089084004,6.0361781243608,-2.86372869367278,-41.8696427127886,-7.8915834334712,48.9363289652637,-25.8950709793893,-11.4154855674745,-0.472885959699942
3.74496925044337,-18.4727646214477,-12.3335895904545,6.00890642834326,-2.82040122868964,-41.9237288596356,-7.89622594055677,48.9663987744499,-25.597443565763,-12.3464783889363,0.238670156634295
3.93912506667348,-18.4603735671602,-12.3105662308551,5.98094376428988,-2.76956598797861,-41.9727862800784,-7.89727799170964,48.9978083948568,-25.2724978374063,-13.2613250209787,0.917749884553988
4.1226319669425,-18.4477297037185,-12.2888808353179,5.95256872554389,-2.71073944938735,-42.0156112749401,-7.89436547145269,49.02980190129,-24.9201129357985,-14.1553278037683,1.55999650575904
4.29403256445989,-18.4346811528638,-12.2687603083186,5.9240761954749,-2.64348079422302,-42.0509997094868,-7.8871553027322,49.0614973052634,-24.5404422536824,-15.0247969865427,2.1621592408026
4.45200826769337,-18.4210427196222,-12.2504131846899,5.89577260974141,-2.56740041258247,-42.0777648717765,-7.87536437361163,49.091891119916,-24.1339241691963,-15.8670594563038,2.72210098725313
4.59539907154259,-18.4065963970611,-12.2340268617736,5.86797085858317,-2.48216809426615,-42.0947555182251,-7.85876762871823,49.1198662514698,-23.7012878359919,-16.6804219255747,3.23876172256436
4.72322085340511,-18.3910927986252,-12.2197653765411,5.84098494490223,-2.38752077921403,-42.1008737378742,-7.83720505678626,49.1442033267691,-23.2435536471293,-17.4640961941674,3.71208517843109
4.83467980064422,-18.3742535334575,-12.2077677556418,5.81512452136745,-2.28326973971925,-42.0950922691702,-7.8105873398386,49.1635954737089,-22.7620280896999,-18.2180952931877,4.14291739947194
4.92918364165419,-18.3557745066209,-12.1981469533946,5.7906894334508,-2.169307055557,-42.0764709180818,-7.77889996957161,49.1766664748074,-22.2582928302617,-18.943109605668,4.53288589320645
5.00634940401639,-18.3353300930203,-12.1909893822395,5.76796439547515,-2.04561122548888,-42.0441717539084,-7.74220567801685,49.1819921098464,-21.7341880220867,-19.6403716519767,4.88426749263299
5.06600747930878,-18.3125781032695,-12.1863550298493,5.74721392338935,-1.91225173958164,-41.9974727980934,-7.70064506965563,49.1781243870801,-21.1917900024697,-20.3115173691538,5.19985204920176
5.10820183416703,-18.2871654332633,-12.1842781456787,5.72867764128389,-1.76939242265297,-41.9357799682726,-7.65443538128754,49.1636182358585,-20.6333837463627,-20.9584506090319,5.48280788472491
5.13318627054757,-18.2587342676997,-12.1847684670293,5.7125660693561,-1.61729335593118,-41.8586370889449,-7.60386733781564,49.13706010481,-20.0614306515015,-21.5832163733804,5.73655371247622
5.14141670442812,-18.2269286916443,-12.1878129408313,5.69905698974829,-1.45631119594512,-41.7657338255116,-7.54930012045514,49.0970977891616,-19.4785324345405,-22.1878870733795,5.96464056561973
5.13353950139767,-18.1914015534106,-12.1933778827405,5.6882924733221,-1.28689773848139,-41.6569114364493,-7.49115451967325,49.0424707078462,-18.8873920983585,-22.7744648823589,6.17064617223577
5.11037598021133,-18.151821416341,-12.2014115009743,5.68037663453912,-1.10959662053256,-41.5321662695567,-7.42990440710041,48.9720397741005,-18.2907730685803,-23.3448020754635,6.35808321389769
5.072903272412,-18.1078794361587,-12.2118466999172,5.67537416296063,-0.925038111864904,-41.3916509560315,-7.36606672656973,48.8848159587557,-17.6914576748871,-23.9005401622647,6.5303220396734
5.02223180903152,-18.0592960038287,-12.2246040685934,5.67330965869554,-0.733932015908975,-41.2356732840564,-7.30019027100699,48.7799866366133,-17.0922061567071,-24.4430676679326,6.69052772801109
4.95957979596137,-18.0058270007357,-12.2395949517247,5.67416777619668,-0.537058771867077,-41.0646927633383,-7.23284357324416,48.6569388327226,-16.4957173018796,-24.9734956411177,6.84161092722462
4.88624513953129,-17.9472695229729,-12.2567244966333,5.67789415723169,-0.335258920438914,-40.8793149243815,-7.16460228673221,48.5152785451996,-15.9045916953269,-25.4926493721792,6.98619165002347
4.8035753941416,-17.8834669442194,-12.275894568903,5.68439711064543,-0.129421158494926,-40.6802834321505,-7.09603645874892,48.3548454157291,-15.3212983881121,-26.0010743720241,7.12657508298769
4.7129364238212,-17.814313201488,-12.2970064349917,5.69354997428503,0.0795307416708284,-40.4684701343985,-7.02769809941969,48.1757221535658,-14.7481456223136,-26.4990543517485,7.26473840957075
4.61568059591398,-17.7397562045089,-12.319963121573,5.70519407358997,0.290651837461601,-40.2448632097699,-6.96010942515887,47.9782382962639,-14.1872560828367,-26.9866387449857,7.40232758103442
4.51311545034744,-17.6598002876785,-12.3446713784445,5.71914217261685,0.502990412250911,-40.0105536261526,-6.89375211190211,47.7629681014272,-13.6405469977318,-27.4636772567926,7.54066290386525
4.40647389980988,-17.5745076439052,-12.3710431927164,5.73518229857163,0.715602516376131,-39.7667201595942,-6.82905784325213,47.5307225879495,-13.1097152636591,-27.9298590263526,7.68075226546172
4.29688709724365,-17.4839987027767,-12.3989968247119,5.75308181350676,0.927566297993672,-39.5146132536478,-6.76640039042365,47.2825359601044,-12.5962276204419,-28.3847542290946,7.82331079994344
4.18536113590215,-17.388451440533,-12.4284573584867,5.77259160987805,1.13799576431892,-39.2555380181814,-6.706089415138,47.0196468387068,-12.1013157376635,-28.827856265191,7.96878580044338
4.07275870112713,-17.28809963438,-12.4593567800705,5.79345032049271,1.34605361706348,-38.9908366795287,-6.64836613815577,46.7434748853953,-11.6259759200825,-29.2586230487383,8.11738571548945
3.95978665261892,-17.1832300970633,-12.4916336132336,5.81538845419945,1.55096282409607,-38.7218708035507,-6.59340096105828,46.4555935389002,-11.1709730026305,-29.6765163019443,8.26911213003731
3.84699027101105,-17.0741789493523,-12.5252321558138,5.83813239019805,1.75201662747653,-38.4500036186783,-6.54129306675588,46.1576996858302,-10.736847898502,-30.0810381364613,8.42379372388179
3.73475455739589,-16.9613270091276,-12.5601013704679,5.8614081805374,1.94858674568369,-38.1765827639231,-6.49207195600242,45.8515811618512,-10.3239281898877,-30.4717645148007,8.58112130708215
3.62331255162318,-16.845094396368,-12.5961934930858,5.88494511942319,2.14012959920472,-37.9029237753229,-6.44570080501628,45.5390830212802,-9.93234111754901,-30.8483753754659,8.74068312850438
3.51276017504054,-16.7259344723496,-12.6334624296255,5.90847903969499,2.32619046457371,-37.6302946034934,-6.40208145739663,45.2220735232786,-9.56202834087471,-31.2106812620429,8.90199971566301
3.40307665875513,-16.6043272470827,-12.6718620167898,5.93175529464165,2.5064055340665,-37.35990142452,-6.36106079941911,44.9024107595145,-9.21276190273346,-31.5586462553279,9.06455752544858
3.29414924548531,-16.4807724002024,-12.7113442240229,5.95453138309137,2.68050192120933,-37.0928759645801,-6.32243822277288,44.5819107905904,-8.88416092734732,-31.8924069199474,9.22784067933457
3.18580059942136,-16.3557820666799,-12.7518573755565,5.97657918339951,2.84829570352051,-36.8302645053538,-6.28597386375846,44.2623180689603,-8.5757086816921,-32.2122868769621,9.39136004675566
3.07781725377273,-16.2298735400772,-12.7933444727198,5.99768677951498,3.00968813484546,-36.5730186781486,-6.25139732448275,43.9452788113124,-8.2867697214059,-32.5188065316944,9.55467895618851
2.96997747550434,-16.1035620438547,-12.8357416973591,6.01765988589592,3.16466019607748,-36.3219881004504,-6.21841661846172,43.632317854051,-8.01660690598309,-32.812687462708,9.71743488394171
2.86207711315261,-15.9773537168559,-12.8789771745977,6.03632290113581,3.31326569070367,-36.0779148686433,-6.18672712352159,43.3248193923721,-7.76439809780426,-33.094851045711,9.8793566080035
2.75395228051908,-15.8517389528165,-12.9229700654841,6.05351963831133,3.45562312994818,-35.8414298966131,-6.15602035614817,43.0240118741485,-7.52925236250232,-33.366411044927,10.0402765030483
2.64549807123512,-15.7271862243098,-12.9676300471444,6.06911379227941,3.59190668412421,-35.6130510753981,-6.12599239853326,42.7309571983493,-7.31022548572706,-33.6286601288369,10.2001378574442
2.53668285152034,-15.6041365077349,-13.0128572214441,6.08298921052365,3.72233649456632,-35.3931832143355,-6.09635181518176,42.4465442550465,-7.10633463414688,-33.8830505277926,10.3589972800885
2.4275580031244,-15.4829984080694,-13.0585424746513,6.09505003364361,3.84716864310832,-35.1821197036989,-6.06682689726401,42.1714867387842,-6.91657202224058,-34.1311693162384,10.5170224160094
2.31826325901121,-15.36414406165,-13.1045682911348,6.10522076281931,3.96668506835896,-34.9800458138901,-6.03717207700227,41.9063250664442,-6.73991749381221,-34.3747090294551,10.6744853002937
2.20902797642255,-15.2479058735241,-13.1508100042269,6.11344629539927,4.08118370312576,-34.7870435199535,-6.00717336552973,41.6514321330569,-6.57534997813735,-34.6154344814931,10.8317517581626
2.10016882135924,-15.134574123439,-13.1971374478674,6.11969194995963,4.19096908284696,-34.6030977118152,-5.97665268814112,41.4070225451727,-6.42185782708701,-34.8551467454299,10.9892673235886
1.99208439808518,-15.0243954512452,-13.2434169539432,6.12394348308284,4.29634363820976,-34.4281036182907,-5.94547102201283,41.1731648843417,-6.27844807448979,-35.0956453203392,11.1475402121674
1.88524735345166,-14.917572208571,-13.289513621982,6.12620708349391,4.39759983954055,-34.2618752402162,-5.91353028227331,40.9497964772316,-6.14415467874205,-35.3386895572218,11.3071219431117
1.78019442592466,-14.8142626408339,-13.3352937707203,6.12650931448731,4.49501331453478,-34.1041545636592,-5.88077394817585,40.7367400903792,-6.01804581796519,-35.585960445251,11.4685862532713
1.67751479964672,-14.7145818450997,-13.380627468723,6.12489696269176,4.5888370225978,-33.9546213130729,-5.84718646580345,40.533721933831,-5.89923031154864,-35.8390238591878,11.6325069781928
1.57783697049314,-14.618603436703,-13.4253910388387,6.12143674191506,4.67929654114969,-33.8129030032454,-5.81279150239012,40.3403903528219,-5.78686324589197,-36.0992963213133,11.7994355842397
1.48181414158472,-14.5263618493398,-13.4694694404976,6.11621479692785,4.76658649805265,-33.6785850525824,-5.7776491578868,40.1563346083038,-5.68015088250518,-36.3680142213535,11.9698790171659
1.39010795550813,-14.4378551865235,-13.5127584501898,6.10933595393255,4.85086816354859,-33.5512207286561,-5.74185226182317,39.9811031900148,-5.57835491968389,-36.646207271443,12.144278492935
1.30337017255316,-14.3530485349091,-13.5551665767278,6.10092267189677,4.93226819037804,-33.4303407135802,-5.70552189871405,39.814221163363,-5.48079616448381,-36.9346767791179,12.3229898091721
1.22222178231808,-14.2718776421532,-13.5966166599394,6.09111366217739,5.01087846189212,-33.3154621024003,-5.66880231473363,39.6552061175386,-5.38685765219543,-37.2339791313631,12.5062657094954
1.1472290959847,-14.1942528557484,-13.6370471095402,6.08006216265695,5.08675697829507,-33.2060966796918,-5.63185536480761,39.5035823533132,-5.29598722925086,-37.5444147154497,12.6942407899668
1.07887675309481,-14.1200632175606,-13.6764127476136,6.06793387466944,5.15992968508996,-33.1017583557367,-5.59485466594388,39.3588930245629,-5.20769959525545,-37.8660223647929,12.886919394303
1.01753843163408,-14.0491806130684,-13.7146852260204,6.0549045923667,5.23039312853251,-33.001969682896,-5.55797963076606,39.2207100278813,-5.12157778301105,-38.1985793083656,13.0841668949292
0.96344740995812,-13.9814638835944,-13.7518530007288,6.04115757113352,5.29811781175507,-32.9062674134132,-5.52140956191399,39.0886415169509,-5.03727404404955,-38.5416065054504,13.2857046874696
0.916670770102111,-13.9167628217675,-13.78792085802,6.02688069260562,5.36305212142473,-32.8142070994314,-5.48531798778918,38.9623369975126,-4.95451010150105,-38.8943791420584,13.4911091246393
0.8770923558171,-13.8549219828431,-13.82290900089,6.01226349011689,5.42512669550574,-32.7253667722715,-5.44986740903657,38.8414900309019,-4.87307672902851,-39.2559419404695,13.699814481986
0.844409730844826,-13.7957842557749,-13.8568517160305,5.99749410281477,5.48425910422756,-32.6393497694945,-5.41520460356853,38.7258386387898,-4.79283260964423,-39.6251287979439,13.9111198978518
0.818148615223157,-13.7391941474037,-13.8897956520211,5.98275623088002,5.54035871606573,-32.5557868037115,-5.38145661093082,38.6151635609879,-4.71370241979662,-40.0005861469997,14.1242000822187
0.797694692343909,-13.6850007412312,-13.9217977482686,5.96822616762986,5.59333161836876,-32.474337385197,-5.34872749133805,38.5092845725025,-4.63567407581431,-40.380799343531,14.3381194572323
0.782338443507567,-13.6330603003088,-13.9529228626766,5.95406998519184,5.64308546140566,-32.3946907197702,-5.31709593490056,38.4080551124903,-4.55879507945351,-40.7641213558678,14.5518492844318
0.771325541649239,-13.5832384932657,-13.9832411548743,5.94044094743668,5.68953409981765,-32.3165662036573,-5.28661378033185,38.311355513021,-4.4831679148718,-41.1488030355314,14.7642872517559
0.763904623850739,-13.53541223397,-14.012825291164,5.92747721574242,5.73260191914264,-32.2397136291532,-5.25730548339151,38.2190851406436,-4.40894448444238,-41.5330242643333,14.9742789314991
0.759366024223183,-13.4894711379012,-14.04174754629,5.91529989997451,5.7722277549774,-32.1639132010871,-5.22916854862417,38.1311537833019,-4.33631962278177,-41.914925270005,15.1806404747898
0.757068222955577,-13.4453186098423,-14.0700768849591,5.90401149131311,5.80836833331736,-32.0889754464634,-5.20217490339391,38.0474726321923,-4.26552378852782,-42.2926373962697,15.3821818870376
0.756451965787595,-13.4028725856765,-14.0978761127552,5.8936946989876,5.84100117866128,-32.0147410795958,-5.17627315367234,37.9679452210663,-4.19681508778443,-42.664312634175,15.5777302471209
0.757044268772909,-13.3620659547735,-14.1251991911062,5.88441170221441,5.87012695070267,-31.9410808644059,-5.15139162098329,37.8924586901976,-4.13047081719806,-43.028151287921,15.7661522972983
0.758455558020724,-13.3228466891689,-14.1520888122727,5.87620382219955,5.89577118207101,-31.8678954971801,-5.12744202531064,37.8208757361024,-4.06677872273713,-43.3824272570431,15.9463759307923
0.760373204587572,-13.2851777028212,-14.1785743264118,5.86909161589981,5.91798540050224,-31.7951155188695,-5.10432365501434,37.7530275905693,-4.00602816004716,-43.7255105545229,16.1174102193236
0.762554082977673,-13.249036460395,-14.2046701041704,5.86307539125339,5.93684763086052,-31.7227012557315,-5.08192785336868,37.6887083443676,-3.94850132765502,-44.0558868339508,16.2783637345544
0.764817855410937,-13.2144143519499,-14.2303744066885,5.85813614048145,5.95246228612722,-31.6506427792221,-5.06014265001621,37.6276708943411,-3.89446473545182,-44.3721738531253,16.4284610130428
0.767041698117946,-13.1813158484746,-14.2556688217222,5.85423688244344,5.9649594699628,-31.5789598684951,-5.0388573721359,37.5696247501985,-3.84416107003908,-44.6731349373358,16.5670570866402
0.76915627235045,-13.1497574533474,-14.2805183103167,5.85132439693264,5.97449372451001,-31.5077019493067,-5.01796708354632,37.514235890141,-3.79780162255352,-44.9576896054167,16.6936500454577
0.771141970612299,-13.119766466693,-14.304871892528,5.84933132399554,5.98124226603916,-31.4369479710063,-4.99737671887677,37.4611288018302,-3.75555944970601,-45.2249215772363,16.8078916186809
0.773023882866266,-13.0913795838331,-14.3286639819647,5.84817859078784,5.98540275947302,-31.366806171009,-4.97700480155335,37.4098907876434,-3.71756344230944,-45.4740843961906,16.9095957546919
0.774863576220642,-13.0646413553645,-14.3518163573641,5.84777811850235,5.98719068989965,-31.2974136665481,-4.95678665636451,37.3600785538711,-3.68389347469327,-45.7046048867733,16.9987451652206
0.776745728822926,-13.0396025431309,-14.3742407370601,5.84803575381279,5.98683639145572,-31.2289358074457,-4.93667704848133,37.3112270464721,-3.65457679995239,-45.9160846402574,17.0754957786225
0.778757979905507,-13.0163184116071,-14.3958419014542,5.84885436305976,5.98458178989368,-31.1615652210778,-4.91665219978434,37.2628604437503,-3.62958583854693,-46.1082996926747,17.1401790321651
0.78096311331485,-12.9948469972608,-14.4165212904672,5.85013702194375,5.98067690766546,-31.0955204827902,-4.89671114973816,37.214505169048,-3.60883748284073,-46.2811985343814,17.1933019253919
0.783363875824998,-12.9752473996291,-14.4361809874163,5.85179022783376,5.97537617474922,-31.0310443531068,-4.87687644302217,37.1657047424461,-3.59219401052651,-46.4348985716712,17.2355447566683
0.785862213024231,-12.957578137608,-14.4547279879995,5.85372705586177,5.96893458849173,-30.9684015365404,-4.85719414116791,37.1160362470749,-3.57946566710587,-46.5696811505307,17.2677564738281
0.788216195385217,-12.9418956131631,-14.4720786429235,5.85587017470129,5.9616037719194,-30.9078759333993,-4.83773317112463,37.0651281416919,-3.57041494095174,-46.6859852528849,17.2909475885192
0.789998999474953,-12.928252722735,-14.4881631535789,5.85815463513012,5.95362799006405,-30.8497673741839,-4.81858404028042,37.012679107221,-3.56476251210643,-46.7843999831816,17.3062806299464
0.790564618571529,-12.916697654153,-14.5029299902699,5.86053034582706,5.94524019447943,-30.7943878455342,-4.79985696553733,36.9584775725791,-3.56219480708151,-46.865655968206,17.3150581404608
0.789024325055671,-12.9072729034999,-14.5163500918298,5.86296415694136,5.93665817419504,-30.7420572364134,-4.78167948292688,36.9024215258857,-3.56237303862301,-46.9306157886763,17.3187082381269
0.784236452230721,-12.9000145415532,-14.5284206958897,5.86544148216772,5.92808089519268,-30.6930986519451,-4.76419362066499,36.8445381822789,-3.56494355641973,-46.9802635518284,17.3187677933222
