Finger Velocity,Scap_X,Scap_Y,Scap_Z,Shoulder horiz abd-adduction,Shoulder flexion-extension,Shoulder internal-external rotation,elbow flexion-extension,forearm pronation-supination,wrist flexion-extension,wrist radial-ulnar deviation
0.787565588716849,-19.0097113519559,-11.3241144073725,7.74268201103549,-14.7721007130668,-43.9225857847261,-18.7175095490356,60.3121942886828,-25.4955268761889,-2.98071678926762,-12.5078812521766
1.01919112242365,-19.0119903247398,-11.3058431980613,7.75423562154549,-14.772571489144,-43.864078109704,-18.7541740915677,60.3071164328881,-25.4435466195869,-3.01833795707231,-12.510527579161
1.28334847353888,-19.0100447275839,-11.2878438421577,7.76375385586195,-14.765375004863,-43.7964525326573,-18.7848511984077,60.3015771585629,-25.3931330897637,-3.07458619606523,-12.4937618816736
1.57751579219772,-19.0034299565727,-11.2700617445434,7.77124289693706,-14.7489016900928,-43.7189674421278,-18.8086947124612,60.2953934588961,-25.3443679683778,-3.14768648533368,-12.4583772152051
1.89982291807466,-18.9916824523033,-11.2524436355488,7.77672816626369,-14.7214906002846,-43.6308988150491,-18.8248556731042,60.2883464022242,-25.2973155083678,-3.23559237701574,-12.4054474517285
2.24857864732058,-18.9743235064742,-11.2349395249582,7.78025065640309,-14.681451747278,-43.5315482039465,-18.8324934088562,60.2801782445411,-25.2520188393025,-3.33600991245564,-12.3363195085911
2.62204693099304,-18.9508641026093,-11.2175045041729,7.78186315329302,-14.6270905518811,-43.4202498464265,-18.8307884345467,60.2705895230617,-25.2084956415814,-3.44642402521086,-12.2526009413207
3.01833976961614,-18.9208107227722,-11.2001003554848,7.78162649269108,-14.5567339481154,-43.2963766732978,-18.8189569607008,60.2592361596487,-25.1667333113933,-3.56412739319082,-12.1561426269062
3.4353683646024,-18.883672011003,-11.182696939564,7.7796059799878,-14.4687575709308,-43.1593450534002,-18.7962666994737,60.2457266030626,-25.1266837989388,-3.68625179379548,-12.0490163370658
3.87082590714166,-18.8389661468575,-11.1652733446522,7.77586808257294,-14.3616133780302,-43.0086181942032,-18.762053537986,60.2296190516375,-25.0882583718308,-3.80980207844548,-11.9334870792879
4.32218918643599,-18.7862287493393,-11.1478187921091,7.7704774828633,-14.2338570012017,-42.8437082135269,-18.7157385577545,60.2104188264288,-25.0513226262387,-3.93169286418866,-11.811980175578
4.78673241117548,-18.7250211034247,-11.1303333020725,7.76349456138763,-14.084174098197,-42.6641770026575,-18.6568448136939,60.187576001445,-25.0156921311903,-4.04878792456631,-11.6870431702576
5.26154955245393,-18.6549384798646,-11.1128281304419,7.75497336307973,-13.9114049816952,-42.4696361052079,-18.5850132456987,60.1604834282905,-24.9811291372081,-4.15794214361903,-11.5613028106197
5.7435829346509,-18.575618305922,-11.0953259947515,7.7449600835379,-13.7145668331872,-42.2597459273358,-18.5000170736807,60.1284753070708,-24.9473408006565,-4.2560458764218,-11.4374175377603
6.22965651126804,-18.4867479415553,-11.0778611109458,7.73349209309954,-13.4928728635412,-42.0342146617087,-18.40177401764,60.0908264518366,-24.9139793655927,-4.34007156990428,-11.3180261898338
6.71651262627658,-18.3880718230144,-11.0604790633951,7.72059749583156,-13.2457478574368,-41.7927973428926,-18.2903556867222,60.0467523823132,-24.8806447112816,-4.4071223672823,-11.2056939637585
7.20085125123317,-18.2793977540966,-11.0432365246487,7.70629520163217,-12.9728396359606,-41.5352954559581,-18.1659934990991,59.9954103528046,-24.8468896308797,-4.45448210443117,-11.1028570561507
7.67937079079434,-18.1606021534191,-11.0262008291622,7.6905954759443,-12.6740260896339,-41.2615574980468,-18.0290805335009,59.9359014087751,-24.8122281644555,-4.47966572716667,-11.0117677306096
8.14880960926614,-18.0316341009719,-11.0094493884053,7.67350092287082,-12.3494175662989,-40.9714808456997,-17.8801687769239,59.8672735348395,-24.7761472559694,-4.48046884130245,-10.9344417605718
8.60598747254619,-17.8925180647993,-10.9930689171089,7.65500785079008,-11.999354529941,-40.6650151983443,-17.7199613260483,59.7885259091501,-24.7381219107898,-4.45501491575714,-10.8726102219226
9.0478461363922,-17.7433552257582,-10.9771544266672,7.63510796243726,-11.6244005233727,-40.3421677337481,-17.5492992344114,59.6986141993709,-24.6976338723356,-4.40179862123144,-10.8276774491434
9.47148835052998,-17.5843233539787,-10.9618079360846,7.61379030347692,-11.2253305705105,-40.0030099221031,-17.3691428923634,59.5964567370837,-24.6541936078541,-4.31972388364877,-10.8006866727967
9.87421459240571,-17.4156752252842,-10.9471368555964,7.59104339599326,-10.8031152612467,-39.6476857260576,-17.1805480980481,59.4809413227295,-24.6073651113053,-4.20813538167314,-10.7922945054208
10.2535568960427,-17.2377355992465,-10.9332520127448,7.56685747762529,-10.3589008926701,-39.2764207022719,-16.9846373241301,59.3509323710592,-24.5567927266053,-4.06684234786692,-10.8027550920229
10.6073092008427,-17.0508968107753,-10.9202653124298,7.54122676415252,-9.89398619755156,-38.889531345307,-16.7825670845948,59.2052781145301,-24.5022288982683,-3.89613364754378,-10.8319143913862
10.9335537118116,-16.8556130518022,-10.9082870474651,7.51415165296449,-9.40979636707131,-38.4874338906245,-16.5754927327864,59.0428176348041,-24.4435614883008,-3.69678325870015,-10.8792146870362
11.2306828355911,-16.6523934383753,-10.8974229017811,7.48564078592755,-8.90785525972274,-38.0706517285126,-16.3645324512078,58.8623875924928,-24.3808390722258,-3.47004548087162,-10.9437090519062
11.4974163345097,-16.441793973994,-10.8877707137592,7.45571289135444,-8.38975685413648,-37.6398205906642,-16.1507325581197,58.662828668465,-24.3142924859809,-3.21763942851949,-11.0240851515248
11.7328134221337,-16.2244085361223,-10.8794170917743,7.42439832528559,-7.8571370978067,-37.1956907742667,-15.9350364320803,58.4429918864566,-24.2443509146559,-2.94172259011402,-11.1186975059813
11.9362796069667,-16.000859032015,-10.8724339961194,7.39174023267305,-7.3116472828137,-36.7391258672223,-15.7182592409149,58.2017451144908,-24.1716510466212,-2.6448535136812,-11.2256071383564
12.1075681745459,-15.7717848924931,-10.866875418547,7.35779525131298,-6.75492993502949,-36.2710977176036,-15.5010702300164,57.9379801102015,-24.097038261913,-2.32994410925755,-11.3426273766
12.246776280962,-15.5378320970233,-10.8627743008181,7.32263368788439,-6.18859794815904,-35.7926777280958,-15.2839836040166,57.6506204610195,-24.0215594509619,-2.00020262895268,-11.4673744142861
12.3543357117916,-15.2996419488736,-10.8601398363816,7.28633910801638,-5.61421735888423,-35.305024909461,-15.0673581238656,57.3386306662647,-23.9464477937717,-1.65906896321513,-11.5973210766215
12.4309984389797,-15.0578398428729,-10.8589552941372,7.24900730222144,-5.03329381252575,-34.8093714189234,-14.8514046580862,57.0010264415374,-23.8731005054084,-1.31014436561681,-11.7298521059694
12.4778171841831,-14.8130242873053,-10.8591764890826,7.21074461762906,-4.447262500784,-34.3070064614018,-14.6362003329829,56.6368861583726,-23.8030509757184,-0.957118050001444,-11.8623192090476
12.4961212708083,-14.5657564531748,-10.8607310007763,7.17166568154363,-3.85748121300248,-33.7992594268116,-14.4217077216357,56.2453632194018,-23.7379368339225,-0.603693248534401,-11.9920941445446
12.4874881192507,-14.3165505273098,-10.8635182078714,7.13189058487597,-3.265226104755,-33.28748303216,-14.2077975666122,55.8256991229353,-23.6794653674549,-0.25351522438285,-12.1166183152194
12.4537108118641,-14.0658651388095,-10.8674101685079,7.0915416350501,-2.67168979902994,-32.773037104388,-13.9942736519528,55.3772369692788,-23.629377574622,0.0898965710207552,-12.2334476433779
12.3967622274021,-13.8140961071106,-10.8722533367625,7.05073981686767,-2.07798146713879,-32.2572735101924,-13.7808985322543,54.8994351819372,-23.5894119922088,0.423210393995331,-12.3402918693799
12.3187563204733,-13.5615707220338,-10.8778710688467,7.00960110695383,-1.4851285823648,-31.7415226077785,-13.5674188994698,54.3918812449475,-23.5612692931429,0.743336706183173,-12.4350477278519
12.2219072009107,-13.3085437168032,-10.8840668407321,6.96823278074028,-0.894080089163193,-31.2270814563563,-13.353589462852,53.854305273996,-23.5465784778041,1.04747410460531,-12.5158256875881
12.1084867508898,-13.0551950441902,-10.8906280707107,6.92672985010127,-0.305710762006457,-30.7152038831688,-13.1391943655327,53.28659322241,-23.5468652995743,1.3331457848055,-12.5809701157881
11.9807816026231,-12.801629518768,-10.8973304162987,6.88517178361544,0.279173482172227,-30.2070923945546,-12.9240653665657,52.6887994630097,-23.5635233983795,1.59822595429859,-12.6290728909802
11.8410503828491,-12.5478783416437,-10.9039423969064,6.84361967893839,0.859829612215244,-29.7038918372812,-12.708096257502,52.0611583900338,-23.5977884820063,1.84095597806603,-12.6589806565037
11.6914822058739,-12.2939024719634,-10.9102301840634,6.8021140593017,1.43557123494136,-29.2066846656979,-12.4912532236038,51.4040945737383,-23.6507157948187,2.059950407692,-12.6697960651244
11.5341574555938,-12.0395977501085,-10.9159624005378,6.76067344462438,2.00576253024126,-28.716487639316,-12.2735810755359,50.7182309088772,-23.7231610386639,2.25419338455085,-12.6608735032528
11.3710119273072,-11.7848016159037,-10.9209147779436,6.71929380880653,2.56981282902249,-28.2342497529213,-12.0552054604385,50.0043941685687,-23.8157648494634,2.42302619868109,-12.6318098938213
11.2038053893861,-11.5293012082491,-10.924874538291,6.67794898848968,3.12717218772591,-27.7608511797293,-11.8363313112513,49.2636174290292,-23.9289408824614,2.56612701709134,-12.5824312518812
11.034095560537,-11.2728425833533,-10.9276443872747,6.63659205539184,3.67732813699115,-27.2971029916926,-11.6172379047876,48.4971389499475,-24.0628675326177,2.68348395743768,-12.5127757001008
10.8632183706589,-11.0151407495266,-10.9290460345471,6.59515760358377,4.21980361167162,-26.8437474220349,-11.3982709737132,47.7063972400137,-24.2174833262732,2.77536277200109,-12.42307364376
10.6922751777617,-10.7558901928731,-10.928923186337,6.55356484365179,4.75415595083304,-26.4014584575747,-11.1798323694181,46.8930221807887,-24.3924860552815,2.8422704288364,-12.3137257651619
10.5221273533017,-10.4947755644188,-10.9271439843987,6.51172134866872,5.27997678896114,-25.9708425844501,-10.9623678130678,46.0588222184403,-24.5873357549737,2.88491584933821,-12.1852794433788
10.3533983359992,-10.2314822141374,-10.9236028876301,6.46952726697628,5.79689262562199,-25.5524395520858,-10.7463533006901,45.2057677634233,-24.8012616212911,2.90416901969321,-12.038404166199
10.1864829110501,-9.96570628753985,-10.9182220060479,6.42687980438648,6.30456584743816,-25.146723065543,-10.5322807415457,44.3359710672111,-25.0332729016567,2.90101967507983,-11.8738665027317
10.0215631259393,-9.69716414259021,-10.9109519020395,6.38367778200007,6.80269597824457,-24.7541013661346,-10.3206434063842,43.4516629775935,-25.2821736782375,2.87653675595062,-11.6925052378651
9.8586299373421,-9.42560089449719,-10.9017718740654,6.33982609127756,7.29102094940035,-24.3749177091164,-10.1119217427256,42.5551671072051,-25.5465813077997,2.83182980299954,-11.4952072874774
9.69750942591704,-9.1507979484946,-10.8906897356499,6.29523988941105,7.76931821101136,-24.0094507875,-9.90657007530899,41.6488720702581,-25.8249481169301,2.76801335129442,-11.2828849823924
9.53789224088319,-8.87257943203836,-10.8777410982899,6.24984840001897,8.23740554354264,-23.6579151802478,-9.70500464874802,40.7352025331964,-26.1155858049333,2.68617522015745,-11.056455242572
9.37936485788576,-8.59081748528593,-10.8629881617112,6.2035982037199,8.69514147491076,-23.3204619239998,-9.50759338678968,39.8165898761924,-26.4166919020947,2.58734940858995,-10.8168210870067
9.22144125371243,-8.30543641036525,-10.8465180115567,6.15645592036604,9.14242525583091,-22.9971793195337,-9.31464764261472,38.8954432729388,-26.7263775776185,2.47249410105076,-10.5648558350092
9.06359371045747,-8.01641571442887,-10.8284404266157,6.10841020204785,9.57919638809843,-22.6880940825465,-9.12641610562036,37.974121970076,-27.0426960841925,2.34247505511029,-10.3013902341956
8.90528164127647,-7.7237921082543,-10.8088852066157,6.05947297647149,10.005433729951,-22.3931729321626,-8.94308092412452,37.0549094896589,-27.3636711501416,2.19805440098272,-10.0272026132436
8.74597755611268,-7.42766054053883,-10.7879990468144,6.00967990580879,10.4211542191221,-22.1123246847696,-8.76475601149374,36.1399903923923,-27.6873246715285,2.03988468577867,-9.74301204956386
8.58518953353959,-7.12817435615791,-10.7659420070933,5.95909005571865,10.8264112611679,-21.8454028880572,-8.59148742986934,35.2314301304621,-28.0117031091286,1.86850788357496,-9.44947449905201
8.42247981114572,-6.82554466225856,-10.74288365185,5.90778479961108,11.2212928304705,-21.5922089883184,-8.4232556896253,34.3311583920643,-28.3349020587048,1.68435905744506,-9.14718184651721
8.25747933331053,-6.5200389702525,-10.7189989700523,5.85586601080319,11.6059193253773,-21.3524959754721,-8.25997976141958,33.4409561991572,-28.6550885379301,1.48777435235679,-8.83666385276963
8.08989828925455,-6.21197916120556,-10.6944642129905,5.80345361776234,11.9804412116869,-21.1259724070583,-8.10152256902523,32.5624468671557,-28.9705206201576,1.27900296933597,-8.51839295242168
7.91953282929389,-5.90173880480261,-10.6694527996631,5.75068261429494,12.3450364865113,-20.9123066882775,-7.94769771152397,31.6970907739938,-29.2795641469247,1.05822269913494,-8.19279178015578
7.74626826184883,-5.58973985138593,-10.6441314328596,5.69769962812071,12.6999079991843,-20.7111314846605,-7.79827714878725,30.8461837281944,-29.5807063708887,0.825558480308943,-7.86024318105552
7.57007911043256,-5.27644871185657,-10.618656548249,5.64465916055276,13.0452806728283,-20.5220481625131,-7.6529995743785,30.0108585903107,-29.8725665150168,0.581103312899692,-7.52110231477363
7.39102645360437,-4.96237174140126,-10.5931711919826,5.59171962053592,13.3813986741148,-20.3446311817883,-7.51157920079227,29.1920897058231,-30.1539033673828,0.324940746494266,-7.17571033671149
7.20925298800986,-4.64805015168963,-10.5678023942794,5.53903928966753,13.7085225783253,-20.178432399463,-7.3737146990655,28.3906996558445,-30.4236201431714,0.0571681202011882,-6.82440908453633
7.02497625169342,-4.33405439307934,-10.5426590786478,5.4867723685616,14.0269265742117,-20.0229852733125,-7.23909806634561,27.6073678179929,-30.6807669188643,-0.22208022330551,-6.46755622592598
6.83848042792459,-4.02097807104624,-10.5178305200169,5.43506526308386,14.3368957501177,-19.8778089803802,-7.10742323045151,26.8426402395132,-30.9245409706833,-0.512610441699027,-6.10554037926956
6.65010712398044,-3.70943148415896,-10.4933853431082,5.3840532654116,14.6387234974272,-19.7424124752276,-6.9783942273715,26.0969403461458,-31.1542853375593,-0.814148038870079,-5.73879574358351
6.46024548870144,-3.40003488841858,-10.4693710376383,5.33385776606236,14.9327090555662,-19.616298507181,-6.85173279871,25.3705800395552,-31.3694858984029,-1.12631864205782,-5.36781576392965
6.26932200006739,-3.09341160062461,-10.4458139589658,5.28458409952105,15.2191552031804,-19.4989675965029,-6.72718525295257,24.6637707770064,-31.5697672237444,-1.44863127712634,-4.99316534603091
6.07779022133491,-2.79018105112267,-10.4227197791983,5.23632008331503,15.4983660764501,-19.3899219445729,-6.6045284282993,23.9766342857781,-31.7548874361734,-1.78046468196482,-4.6154911345221
5.8861207923431,-2.4909518871268,-10.4000743536116,5.18913526708047,15.7706450739533,-19.2886692294946,-6.4835746009601,23.3092126435043,-31.9247322817012,-2.12105716237294,-4.23552938258628
5.69479189160952,-2.1963152172454,-10.3778449708371,5.1430808716808,16.0362927927714,-19.1947262179093,-6.36417520952418,22.6614775447066,-32.0793085707232,-2.46950044534409,-3.85411097303465
5.50428037446669,-1.90683808054127,-10.3559819611281,5.09819037147839,16.2956049346231,-19.107622106288,-6.24622330943108,22.033338654907,-32.218737104525,-2.82473791477682,-3.4721632133394
5.31505376207069,-1.62305722108168,-10.3344206407479,5.05448065407836,16.5488701237657,-19.0269014934125,-6.12965471954037,21.4246510129471,-32.3432451778269,-3.18556752163396,-3.09070811876977
5.12756322485802,-1.3454732501552,-10.3130835684282,5.01195367794049,16.7963675890679,-18.9521268852482,-6.01444786139198,20.8352214788203,-32.4531587482147,-3.55064954477167,-2.71085700470079
4.94223767119041,-1.07454528034049,-10.2918830821725,4.97059853588762,17.0383646795265,-18.882880647737,-5.90062231273601,20.2648142479827,-32.5488943889345,-3.91851923599656,-2.33380132243712
4.75947901696388,-0.810686115609484,-10.2707240744751,4.93039382059186,17.2751142045222,-18.8187663510035,-5.78823610682722,19.7131554749395,-32.6309511825781,-4.28760420058856,-1.96079980234585
4.57965867465262,-0.554258077975982,-10.2495069538665,4.89131017839099,17.506851616491,-18.7594094825419,-5.67738182808619,19.1799370742565,-32.699902747505,-4.65624613532746,-1.59316212876216
4.40311526081512,-0.305569544123357,-10.2281307313431,4.85331293314646,17.7337920834566,-18.704457538599,-5.56818159921306,18.6648197936782,-32.7563895888686,-5.02272629158103,-1.23222955646319
4.23015348019122,-0.0648722564119772,-10.2064961610817,4.81636466379375,17.956127530704,-18.653579529624,-5.46078112103529,18.1674356764774,-32.8011119187313,-5.38529379839895,-0.879353059134259
4.06104410331705,0.167640537889528,-10.1845088554412,4.78042762764979,18.1740237618856,-18.6064649600684,-5.35534299683786,17.6873900461441,-32.8348230080226,-5.74219580586265,-0.53586975227293
3.89602491465602,0.391835078425639,-10.1620822858022,4.745465935844,18.3876177947447,-18.5628223671304,-5.25203963253465,17.2242631567877,-32.8583230442085,-6.09170829886228,-0.203078449852566
3.73530247147562,0.607637189776737,-10.1391405758911,4.7114474062303,18.5970155598767,-18.5223775252963,-5.15104604503555,16.7776116567571,-32.8724533939963,-6.43216639282873,0.117784715968264
3.5790544821445,0.815031477582488,-10.1156209946578,4.67834504050458,18.8022901094475,-18.4848714375043,-5.05253292850289,16.3469700067427,-32.8780911198791,-6.76199297879928,0.425569683984757
3.42743258822642,1.01405963037436,-10.0914760614027,4.64613809356551,19.003480466641,-18.4500582335077,-4.95666031734363,15.9318519724928,-32.8761435767346,-7.07972473563883,0.719234010696015
3.28056531956451,1.20481784989881,-10.0666751860389,4.61481272283884,19.2005912181594,-18.4177030826355,-4.86357214393738,15.5317522773797,-32.8675429223533,-7.38403472705366,0.997861848624017
3.13856098700207,1.38745345001192,-10.04120578209,4.58436222229422,19.393592914977,-18.3875802092066,-4.77339192212816,15.1461484592138,-32.853240410914,-7.67375100426883,1.26067977807062
3.0015102845494,1.56216068555456,-10.0150738091998,4.55478685980962,19.5824233055569,-18.359471080489,-4.68621970548179,14.7745029385149,-32.8342003882629,-7.94787083267569,1.5070690790681
2.86948839225409,1.72917589674855,-9.98830372435427,4.52609334819505,19.766989386807,-18.3331628206793,-4.60213038703699,14.4162652785368,-32.8113939540752,-8.20557035070063,1.73657420016249
2.74255640283431,1.88877207811054,-9.96093784417547,4.49829399066092,19.9471702260753,-18.3084468902505,-4.52117333540468,14.0708746034139,-32.785792287391,-8.44620962598938,1.94890732461521
2.62076193887816,2.04125300049107,-9.93303514188621,4.47140555053075,20.1228204835607,-18.2851180593942,-4.44337330328314,13.7377621396173,-32.7583596492901,-8.66933317565339,2.14394903377589
2.50413888221121,2.18694702904746,-9.90466952033503,4.44544790108535,20.2937745471328,-18.2629736964886,-4.36873249836518,13.4163538540327,-32.7300460835304,-8.87466608455899,2.32174514176145
2.39270620148096,2.32620078852698,-9.87592761686974,4.42044251363498,20.4598511796107,-18.2418133846659,-4.29723367450861,13.1060731733655,-32.7017798332604,-9.06210593869657,2.48249986457009
2.28646593602574,2.45937283059141,-9.8469062079754,4.3964108405348,20.6208585712099,-18.2214388701183,-4.2288440828512,12.8063437791545,-32.6744594817224,-9.23171092150823,2.62656560922426
