Finger Velocity,Scap_X,Scap_Y,Scap_Z,Shoulder horiz abd-adduction,Shoulder flexion-extension,Shoulder internal-external rotation,elbow flexion-extension,forearm pronation-supination,wrist flexion-extension,wrist radial-ulnar deviation
1.96541942010435,-20.8735054749535,-9.27257600585251,5.59468386821394,-7.29342804660331,-40.9207421954943,-13.1717368321722,54.8734822995197,-27.5340638669153,2.29149801427329,-16.0196870895714
2.30065650029855,-20.8139942126035,-9.28429474617601,5.60225558125327,-7.15672112841539,-40.8102439208318,-13.1648536819854,54.8480191683529,-27.4689659036208,2.09583390739947,-15.911384397343
2.63661841303916,-20.7532123690467,-9.29622129275558,5.6123890615995,-7.0166899645854,-40.6945574947433,-13.1599710054228,54.821524771465,-27.4040018338429,1.90238944849599,-15.8057978464227
2.97087041135033,-20.6912479346937,-9.30834322394535,5.62518239479002,-6.87312332109901,-40.5734720036517,-13.1570267846125,54.7936871631824,-27.3394220016954,1.71314429526255,-15.7040768976853
3.30111670988063,-20.628171452301,-9.32064994313435,5.64069033376618,-6.72572342405794,-40.4467592820378,-13.1559051870315,54.7641836755134,-27.275451751599,1.5300626575961,-15.6073436419669
3.62524246059938,-20.5640356088199,-9.3331323095649,5.65891956635707,-6.57410980936211,-40.3141799530291,-13.1564372533201,54.7326896684034,-27.2122871373689,1.35506120777467,-15.5166733518357
3.94135209060988,-20.4988753903541,-9.3457822243774,5.67982473892858,-6.41782546082553,-40.1754902838843,-13.1584026959169,54.6988869504529,-27.1500908155113,1.18997831270979,-15.4330753912836
4.24780129112801,-20.432708766464,-9.35859219686457,5.70330544298514,-6.25634506706195,-40.0304495920248,-13.161532788076,54.662471513161,-27.0889881992974,1.03654517429975,-15.3574747986448
4.54322132474336,-20.3655378585903,-9.37155491464085,5.72920437695552,-6.08908517747897,-39.8788279089736,-13.1655143125348,54.623160267139,-27.029063984895,0.896359354888508,-15.2906949017461
4.8265350992485,-20.2973505324555,-9.38466283804968,5.75730688404889,-5.91541599061568,-39.7204135889728,-13.1699945276635,54.5806965287419,-26.9703591966142,0.770861076941673,-15.2334413790225
5.09696496440991,-20.2281223368728,-9.39790783330911,5.7873420386363,-5.73467446866493,-39.5550205459196,-13.1745870906538,54.5348540686221,-26.9128689294837,0.661312610636886,-15.1862882207917
5.35403254627592,-20.1578186945572,-9.41128085121164,5.81898541185689,-5.54617844397304,-39.3824948242566,-13.1788788472177,54.4854395881013,-26.8565409905204,0.568780981721226,-15.1496660465658
5.5975511946008,-20.0863972370799,-9.42477165068897,5.85186359594403,-5.34924136620609,-39.2027202542265,-13.1824373535499,54.4322935353748,-26.8012756616746,0.494124164933195,-15.123853203901
5.8276118084526,-20.0138101654929,-9.43836856165275,5.88556050704167,-5.14318732736862,-39.0156229966275,-13.18481894074,54.3752892141051,-26.7469268265745,0.43798090515511,-15.1089700303353
6.04456293762721,-19.9400065067482,-9.45205828037526,5.919625415341,-4.92736598908635,-38.8211748338136,-13.185577068571,54.3143301630828,-26.6933046952239,0.400764307045451,-15.1049765909031
6.24898614249984,-19.8649341208737,-9.46582569253241,5.95358256446067,-4.70116701907908,-38.6193951091049,-13.1842706492837,54.2493457914701,-26.6401803055909,0.382659299858476,-15.1116740831315
6.44166763905665,-19.7885412954333,-9.47965372206812,5.9869421364738,-4.46403362388,-38.4103512615435,-13.1804719562678,54.1802852554459,-26.5872918929744,0.383623992929876,-15.1287099290451
6.62356726402437,-19.7107777464461,-9.49352320666705,6.01921220226285,-4.21547475097535,-38.1941579528353,-13.1737736764244,54.1071095806357,-26.5343531254361,0.403394796114241,-15.1555863696932
6.79578577106714,-19.6315948363408,-9.50741280196802,6.04991119153588,-3.95507553871773,-37.9709748391525,-13.1637946393915,54.0297820728159,-26.4810631163711,0.441494998210381,-15.1916721600153
6.95953141602963,-19.5509448275048,-9.52129891645903,6.07858034931671,-3.68250562797814,-37.7410030970517,-13.1501837889951,53.9482571046176,-26.4271180370045,0.497246294739354,-15.2362167558476
7.11608670994,-19.4687790181029,-9.53515567772805,6.10479562808979,-3.39752501899659,-37.5044808597507,-13.1326220671763,53.8624674152323,-26.3722240584627,0.569782589461525,-15.2883662390008
7.2667761158909,-19.3850446539815,-9.54895492921702,6.128178494931,-3.09998725892346,-37.2616777486149,-13.1108220560842,53.7723101248754,-26.3161112623892,0.658065345010857,-15.3471801909828
7.41293534362243,-19.2996805728342,-9.56266625518814,6.1484052050157,-2.78983987721786,-37.0128886951129,-13.0845254513671,53.6776317521594,-26.2585480834083,0.760899878639616,-15.4116488067842
7.55588275841382,-19.2126116077349,-9.57625703024052,6.16521419475238,-2.46712213594508,-36.7584272465016,-13.0534986777066,53.5782126165864,-26.1993557933135,0.876952247012087,-15.4807096835498
7.69689327495814,-19.1237418485937,-9.58969248896729,6.17841135911365,-2.13196030693547,-36.4986185377817,-13.0175271528468,53.473751086325,-26.1384225061837,1.00476662178526,-15.5532638616435
7.83717495988235,-19.0329469267732,-9.60293581219206,6.18787308180304,-1.78456080421353,-36.2337920954353,-12.9764088242504,53.3638481796708,-26.075716177906,1.1427832247134,-15.6281908235825
7.97784842718205,-18.9400655488255,-9.6159482290881,6.19354697840979,-1.42520157634195,-35.9642746199674,-12.9299476421125,53.2479930501514,-26.0112961008522,1.2893569440162,-15.70436229159
8.11992898808633,-18.8448905607513,-9.62868913878241,6.19545039298548,-1.05422220078446,-35.6903828785097,-12.877947612049,53.1255498896613,-25.9453224597617,1.44277671813955,-15.7806547986101
8.26431141905572,-18.7471598744388,-9.64111625942342,6.19366676012742,-0.672013131206802,-35.4124168255798,-12.8202080115341,52.9957467758897,-25.878063604983,1.60128566026729,-15.855961083009
8.41175714518333,-18.6465476306555,-9.65318581504013,6.18834001065347,-0.279004543405748,-35.1306530587972,-12.7565202740357,52.8576669697961,-25.8099007844567,1.76310170531651,-15.9292003305984
8.56288360473418,-18.5426560031063,-9.66485276838489,6.17966726128462,0.124344780765398,-34.8453387122555,-12.6866669512665,52.7102431393619,-25.7413301396548,1.9264383420965,-15.9993271936972
8.71815556382621,-18.43500806061,-9.6760711001011,6.16789008610357,0.537558094067197,-34.5566859024344,-12.6104230499581,52.5522549533106,-25.6729618280458,2.0895248538254,-16.065339443006
8.87787818443878,-18.323042097732,-9.68679412251208,6.15328471531002,0.960150410808634,-34.2648668730846,-12.5275598963818,52.3823304550497,-25.605516207133,2.25062549560024,-16.1262841121427
9.04219170676783,-18.2061078203302,-9.69697480381528,6.13615153926223,1.39163688403959,-33.9700100305671,-12.4378515139078,52.1989515897973,-25.5398171057208,2.40805716397298,-16.1812620752382
9.21106767876044,-18.0834647348561,-9.70656606931008,6.11680430866231,1.83153941444854,-33.6721971074853,-12.3410833223941,52.0004642088857,-25.476782305685,2.56020530421064,-16.2294311267737
9.38430674070904,-17.9542830412179,-9.71552104281091,6.09555941420469,2.27939111908122,-33.3714617188573,-12.2370628067266,51.7850928003675,-25.4174114414727,2.70553800395332,-16.2700077755515
9.56153804070317,-17.8176472690632,-9.72379319384828,6.07272560436372,2.73473837026446,-33.0677895565482,-12.125631682838,51.550960082178,-25.3627715669262,2.84261838182431,-16.302268079977
9.74222040886322,-17.6725628265039,-9.7313363630486,6.04859446322956,3.19714022908167,-32.7611203983074,-12.0066790267165,51.2961114464616,-25.3139806299307,2.97011544552431,-16.3255479054632
9.92564544860928,-17.5179655495623,-9.73810464708295,6.02343192461708,3.66616523683068,-32.4513520112109,-11.8801548098495,51.018544075443,-25.2721890597664,3.08681355861914,-16.3392429683232
10.1109427088768,-17.3527342517255,-9.74405213464555,5.997471044914,4.14138568689882,-32.1383459367783,-11.7460832730833,50.7162403681061,-25.2385596451047,3.19162056231472,-16.3428089597463
10.2970870823973,-17.17570617804,-9.74913249599185,5.97090619647355,4.62236967070749,-31.8219350701529,-11.6045755517303,50.3872051208779,-25.2142458798622,3.28357450597243,-16.3357619436564
10.4829085347601,-16.9856951707965,-9.75329844038139,5.94388877922182,5.10867136320609,-31.5019328842446,-11.4558409394176,50.0295056964618,-25.200368983704,3.36184887969203,-16.3176791150018
10.6671042116813,-16.7815122593,-9.75650106715322,5.91652448512582,5.59982017173671,-31.1781440939282,-11.3001961604302,49.6413142086698,-25.1979938664859,3.42575621589947,-16.2881999038772
10.8482529034476,-16.5619882989173,-9.75868914544194,5.88887209226225,6.0953094997079,-30.8503765039599,-11.138072027773,49.2209505721441,-25.2081044015653,3.47474993197127,-16.2470273283505
11.0248317717902,-16.3259982064993,-9.75980836346504,5.8609437158009,6.5945859574061,-30.5184537410948,-10.9700169107203,48.7669251336794,-25.2315784975102,3.50842432752127,-16.1939294483939
11.1952351709023,-16.0724862706438,-9.75980059065431,5.83270640501504,7.0970398771308,-30.1822285367254,-10.796696524882,48.2779795228506,-25.2691636024515,3.52651272698034,-16.1287407590159
11.3577953254695,-15.8004919555907,-9.75860319571453,5.80408494915351,7.6019979499124,-29.8415961956586,-10.6188896834901,47.7531243358442,-25.321453423831,3.52888385284459,-16.0513633718362
11.5108045678072,-15.5091755670715,-9.75614846305271,5.77496573864147,8.10871868855941,-29.4965078543246,-10.437479801958,47.1916723043441,-25.3888667767185,3.51553660168232,-15.9617678533893
11.6525387857621,-15.1978431103143,-9.75236315096962,5.74520151915996,8.61639124744762,-29.1469830991513,-10.2534421244979,46.5932657044868,-25.47162956536,3.48659345352953,-15.8599936003857
11.781281694143,-14.8659696508657,-9.74716823827221,5.71461687394704,9.12413792391579,-28.7931214889727,-10.0678268403914,45.9578969229081,-25.5697609349097,3.44229277104164,-15.7461486315492
11.8953495155378,-14.5132204932344,-9.74047891059194,5.68301427341838,9.63102045657565,-28.4351125109126,-9.88173847190453,45.2859213080072,-25.6830645821941,3.38298024400511,-15.6204086645055
11.9931156412564,-14.1394695216194,-9.7322048416779,5.65018053740572,10.1360500331646,-28.0732435026972,-9.69631213015641,44.5780616875222,-25.8111260692965,3.30909971200783,-15.4830153276737
12.0730348392696,-13.7448140987798,-9.72225082545928,5.61589355891145,10.6382007267564,-27.7079050991493,-9.51268743003503,43.8354042227411,-25.9533167361278,3.22118355948071,-15.3342733413877
12.1336665826159,-13.3295859902721,-9.71051780840252,5.57992913664385,11.1364258964165,-27.339593809617,-9.33198101452516,43.0593855904328,-26.1088044663359,3.11984284599924,-15.1745465166735
12.1736970879432,-12.8943578696204,-9.69690435612403,5.54206775795275,11.6296769226038,-26.9689114107095,-9.15525875145819,42.2517718290561,-26.2765711499325,3.00575734066063,-15.0042524909787
12.1919596787411,-12.439945064823,-9.68130856323954,5.50210116707749,12.1169235082699,-26.59656094841,-8.98350872324943,41.4146295405518,-26.4554362473946,2.87966567966975,-14.8238562457615
12.1874531204859,-11.9674023277141,-9.66363038305706,5.45983854795223,12.5971746739437,-26.2233392840696,-8.81761612544273,40.5502904775487,-26.6440854450437,2.74235594366419,-14.633862609129
12.1593576144502,-11.4780155427852,-9.64377431681699,5.41511214747982,13.0694995163081,-25.8501262819107,-8.65834111773647,39.6613108389693,-26.8411030497379,2.59465703924697,-14.4348081253651
12.1070481823996,-10.9732884364845,-9.62165236405336,5.36778216696303,13.5330467878182,-25.4778709070357,-8.50630053356804,38.7504268185762,-27.0450065391342,2.43743135069331,-14.2272528591298
12.0301052248418,-10.4549244973214,-9.59718710088348,5.31774076231337,13.9870623900739,-25.1075746655729,-8.36195416530142,37.820508081585,-27.2542815829435,2.27156916704016,-14.011772852625
11.9283220899032,-9.92480446859744,-9.57031472746642,5.26491502574045,14.4309039558322,-24.7402729602417,-8.22559612500299,36.8745108747382,-27.4674158884363,2.09798535000629,-13.7889540155883
11.801709547208,-9.38495992589287,-9.54098791503669,5.20926887745487,14.8640518234931,-24.3770150487533,-8.09735155855603,35.9154324052531,-27.6829303936392,1.91761857220787,-13.5593881698832
11.6504971201959,-8.83754359266024,-9.50917829011476,5.15080386940369,15.2861158812471,-24.0188433704146,-7.97717877648222,34.9462679594897,-27.8994066085049,1.73143320864101,-13.323671776975
11.475131289959,-8.28479716676518,-9.47487841758373,5.08955897723653,15.6968379683919,-23.6667730360976,-7.86487666140234,33.9699719849699,-28.1155092444774,1.54042361243111,-13.0824075549221
11.2762706426791,-7.72901751770692,-9.43810317886452,5.02560951549707,16.0960897551519,-23.3217722555609,-7.76009702157004,32.9894240522419,-28.3300036303617,1.34562012893985,-12.8362088149179
11.0547780898973,-7.17252216486332,-9.39889047848659,4.95906535022284,16.4838662617348,-22.9847444158919,-7.66236138893095,32.0074002781185,-28.5417677553769,1.14809592265847,-12.5857060276465
10.8117103449361,-6.61761496111353,-9.35730124844152,4.89006860546125,16.8602754027328,-22.6565124385109,-7.57108161464945,31.0265504622387,-28.7497990919441,0.948973558288924,-12.3315549195848
10.5483048886834,-6.06655288060454,-9.31341875651618,4.81879106481499,17.2255241363888,-22.3378059309014,-7.48558349503073,30.0493808904687,-28.953216617102,0.749430250492309,-12.0744452739324
10.2659647025875,-5.52151474121201,-9.26734726352875,4.74543145186023,17.5799019468693,-22.0292515101527,-7.40513256368998,29.0782425061577,-29.1512586555329,0.550700737013436,-11.8151095431006
9.96624108516242,-4.9845725852767,-9.21921011098325,4.67021273499288,17.923762485072,-21.7313665163744,-7.32896111244493,28.115323949684,-29.3432772983772,0.354076840843095,-11.5543303772201
9.65081489979702,-4.45766630797205,-9.16914734747036,4.59337955227902,18.2575042382449,-21.4445561732004,-7.25629545988182,27.1626488189024,-29.5287302149789,0.160902975078788,-11.2929462433856
9.32147662556875,-3.94258197447954,-9.11731301364218,4.51519580288553,18.5815510926811,-21.1691141057798,-7.18638248145262,26.2220764056534,-29.7071706845312,-0.027432904926847,-11.0318544391007
8.98010559866736,-3.44093411510637,-9.0638722020768,4.43594241128069,18.896333600723,-20.9052259998772,-7.11851445229593,25.295305113722,-29.8782366447251,-0.209513102860385,-10.7720109716733
8.62864883967779,-2.95415213814533,-9.00899799543954,4.35591523746056,19.2022716676613,-20.6529760768175,-7.0520513290324,24.3838777610362,-30.0416394915068,-0.383908616768085,-10.5144269715475
8.26909986127677,-2.48347085848704,-8.95286837224766,4.27542307462395,19.4997592424675,-20.4123559635391,-6.98643970036685,23.4891880123046,-30.1971532710046,-0.549201772564029,-10.2601615157807
7.90347784192334,-2.02992500991299,-8.89566316099047,4.19478564135197,19.7891514410267,-20.1832754554954,-6.92122776211142,22.6124872717285,-30.3446047854955,-0.704012344856779,-10.0103109317856
7.53380753401894,-1.59434749648362,-8.83756112099558,4.11433144546843,20.0707543693718,-19.9655746121632,-6.8560758215964,21.7548914790628,-30.4838649992249,-0.847026243631112,-9.76599481038671
7.16210024993925,-1.17737105386619,-8.77873722599828,4.03439538952502,20.344817764929,-19.7590366047456,-6.79076201787951,20.91738738611,-30.6148419939723,-0.977025693288307,-9.52833908261659
6.79033623636641,-0.779432943470136,-8.71936021705958,3.95531601662797,20.6115304469072,-19.5634007599098,-6.72518316014654,20.1008380344675,-30.7374756044839,-1.09291971567612,-9.2984566278594
6.4204487062938,-0.400782285094861,-8.65959047610614,3.87743234911135,20.8710184632919,-19.3783753007406,-6.65935081668611,19.3059872978146,-30.8517337622932,-1.19377363698884,-9.07742600694928
6.05430974829402,-0.0414896295554292,-8.59957825757046,3.80108032329948,21.1233457347339,-19.203649353806,-6.59338299484193,18.5334634832651,-30.9576104842416,-1.27883627675239,-8.86626905809648
5.6937182727432,0.298541629789689,-8.53946230845922,3.7265888550564,21.3685169206858,-19.038903855635,-6.52749191560902,17.7837820998041,-31.0551253525901,-1.3475634733461,-8.6659282284714
5.34039008216604,0.619562405050386,-8.47936890409373,3.65427558913282,21.6064821742213,-18.8838210569287,-6.46196850682421,17.057347992878,-31.1443242460947,-1.3996366871785,-8.47724459706901
4.99595006359212,0.921964004468782,-8.41941132195465,3.58444240303938,21.8371434158606,-18.7380923973945,-6.39716432725031,16.3544571085821,-31.2252810007828,-1.43497561833535,-8.30093754667579
4.66192638856549,1.2062635185724,-8.35968976625987,3.51737075853519,22.0603617454463,-18.6014246085482,-6.33347169615217,15.6752981869882,-31.2980996203878,-1.45374407743959,-8.13758695952786
4.33974646243003,1.4730888117957,-8.3002917414793,3.45331701930203,22.2759656204547,-18.4735439873484,-6.27130284012981,15.0199546940527,-31.3629166386199,-1.45634872938489,-7.98761865470392
4.03073417735995,1.72316337882677,-8.24129285627047,3.39250787768842,22.4837594518515,-18.3541988588571,-6.21106888136389,14.3884072873143,-31.4199032663568,-1.4434307455041,-7.85129357513467
3.73610778054286,1.95729127288147,-8.18275802279845,3.33513605132055,22.6835322986874,-18.2431603041991,-6.15315947870892,13.7805370720932,-31.4692670282058,-1.41585080975118,-7.72870098809651
3.45697735953465,2.17634226594099,-8.12474300144577,3.28135641772423,22.8750663792619,-18.140221272449,-6.09792389406331,13.1961298433436,-31.5112526891547,-1.37466829597676,-7.61975570810486
3.19434057177142,2.38123736180965,-8.06729622761499,3.23128275081283,23.0581451645905,-18.0451942302277,-6.04565419298489,12.6348814306263,-31.5461423734328,-1.32111573295159,-7.52419911611269
2.94907483335792,2.57293475157082,-8.01046084558716,3.18498520922909,23.2325608828487,-17.9579075391251,-5.99657120647485,12.0964041809535,-31.5742548591272,-1.25656987775518,-7.4416035600972
2.72192381877826,2.75241627687356,-7.95427686475599,3.14248870610001,23.3981213371286,-17.8782007906503,-5.95081378333194,11.5802345366213,-31.5959440740054,-1.18252082724974,-7.37137958759063
2.51347598761425,2.92067444978494,-7.89878334658308,3.1037722644622,23.5546560110234,-17.805919367113,-5.90843174525056,11.0858415990953,-31.6115968199628,-1.10054061494399,-7.31278538431555
2.32413325252244,3.07870006982293,-7.84402052678024,3.06876943237711,23.702021493829,-17.7409085285021,-5.86938281352828,10.6126365189524,-31.6216297326941,-1.01225263585508,-7.26493780303501
2.15406925007298,3.22747048029512,-7.7900317780385,3.03736979577556,23.8401062914617,-17.6830073443096,-5.83353360556428,10.1599825156605,-31.6264854632466,-0.919302966339215,-7.22682450735493
2.00317935754077,3.36793851726376,-7.73686532677817,3.00942158508124,23.9688351014124,-17.6320427908629,-5.80066460825647,9.72720530543415,-31.6266280692855,-0.823334215808122,-7.19731701979699
1.87102863525958,3.50102222276618,-7.68457565375354,2.98473532605981,24.0881726285166,-17.5878243188648,-5.7704788412777,9.31360369594564,-31.622537633982,-0.725962088251001,-7.17518475107321
1.75680844924822,3.62759541355363,-7.63322452958179,2.96308844178629,24.1981270097851,-17.550139165489,-5.74261375078182,8.91846009267048,-31.6147041807748,-0.628754488493973,-7.15911027589705
1.65931571227534,3.74847921166123,-7.58288165674441,2.94423067536663,24.2987528957945,-17.5187486389285,-5.71665574067704,8.54105065565553,-31.6036210066912,-0.53321282977385,-7.1477061709159
1.57696793280678,3.86443465132949,-7.53362490531055,2.9278901706719,24.390154191955,-17.4933855358854,-5.6921566523253,8.18065484999407,-31.5897776062555,-0.440755150494848,-7.13953367918318
1.50786099668913,3.97615647883349,-7.48554013935954,2.91378001778047,24.4724863992105,-17.4737527713906,-5.66865143451625,7.836564148983,-31.5736524006851,-0.352700691624671,-7.13312335135354
1.44986600511612,4.08426825784782,-7.43872063532645,2.90160504267945,24.5459584348554,-17.459523227394,-5.64567620519561,7.50808967490686,-31.5557055173903,-0.270255695954426,-7.12699765899335
