Finger Velocity,Scap_X,Scap_Y,Scap_Z,Shoulder horiz abd-adduction,Shoulder flexion-extension,Shoulder internal-external rotation,elbow flexion-extension,forearm pronation-supination,wrist flexion-extension,wrist radial-ulnar deviation
0.938749801134613,-22.2798786355805,-20.2597944533251,5.55604203519362,-6.60138768502542,-39.9133955509095,-11.2815492973858,62.1836308160051,-27.3901745012091,9.80738317815761,-21.5989622740137
1.1152256046126,-22.2681396801035,-20.2652353531469,5.55545262554026,-6.63141751287556,-39.9271133534982,-11.3024196999775,62.2410270684645,-27.2361967479716,9.56708615038106,-21.33688278728
1.30205386272291,-22.2578320353789,-20.2700904572623,5.55403068449869,-6.66170043970403,-39.9417167664131,-11.3226248436301,62.3041151363266,-27.0667238074402,9.27555492647141,-21.024879356556
1.49810612655744,-22.2490866593288,-20.2742735689999,5.55170712170305,-6.69174983528769,-39.9569364946289,-11.3418807891467,62.3727110330242,-26.8812231950929,8.93001679108063,-20.6609812266392
1.70213497371386,-22.2420056597954,-20.2776927096414,5.54840684980237,-6.7210154725023,-39.9724510337186,-11.3598879309572,62.4465031859517,-26.6791986911607,8.52835299336936,-20.243923079525
1.91278054345707,-22.2366590158531,-20.2802496250969,5.54404965874062,-6.74888426355479,-39.9878870500786,-11.3763323386031,62.5250432509286,-26.4601931533922,8.06918540477021,-19.7732222082435
2.12858325397544,-22.2330816479862,-20.2818395403635,5.53855128611791,-6.77468205802657,-40.0028208741359,-11.3908872808978,62.6077385673969,-26.2237922830561,7.5519433181235,-19.2492349843032
2.34800069844389,-22.231270901407,-20.2823511775136,5.53182461622738,-6.79767656006292,-40.0167811671461,-11.4032149567856,62.6938465030367,-25.9696296869018,6.97690554831448,-18.6731878869438
2.56942753993042,-22.231184508585,-20.2816670466912,5.52378093579775,-6.81708140958715,-40.0292527815496,-11.412968473142,62.7824709410709,-25.697393499542,6.34521403273144,-18.0471793409301
2.79121757685916,-22.2327390965568,-20.2796640155206,5.51433117853699,-6.83206145955457,-40.0396817892,-11.4197941264463,62.8725611671714,-25.4068347000054,5.65885663593331,-17.3741500614092
3.01170730128354,-22.2358093020677,-20.2762141574884,5.5033871011293,-6.84173926457045,-40.0474816093942,-11.4233340575507,62.962913411406,-25.0977770837303,4.92061873805988,-16.657821439677
3.22924033411501,-22.2402275534433,-20.2711858730997,5.4908623484516,-6.84520277502246,-40.0520401330744,-11.4232293518558,63.0521752883554,-24.7701286595675,4.13400525556321,-15.9026035508926
3.4421921450334,-22.2457845722815,-20.2644452703588,5.47667338355067,-6.84151420869185,-40.0527277073656,-11.4191236466571,63.1388533515592,-24.4238940565615,3.30313677800032,-15.1134764004218
3.64899447417479,-22.2522306405177,-20.2558577854179,5.46074027586887,-6.82972005105027,-40.0489058118742,-11.4106672809817,63.2213239370719,-24.0591873701041,2.43262529193134,-14.2958498432738
3.84815888013995,-22.2592776691444,-20.2452900209094,5.4429873568259,-6.80886211399315,-40.0399362264421,-11.3975219826196,63.2978474171917,-23.6762447664327,1.52743634685665,-13.4554090656396
4.03829885103886,-22.2666020934057,-20.2326117778341,5.42334376379821,-6.77798955775691,-40.025190464295,-11.3793660373736,63.3665859197518,-23.275436103105,0.592745371404456,-12.5979534918428
4.21814993597584,-22.2738486043227,-20.2176982555872,5.40174390176758,-6.73617175276234,-40.0040592280767,-11.3558998330792,63.4256244881159,-22.8572748102678,-0.366203966787938,-11.7292373443398
4.38658738583999,-22.2806347063032,-20.2004323927914,5.37812785744023,-6.68251182966568,-39.9759616400967,-11.3268516220072,63.4729955582074,-22.4224253147496,-1.34423203272449,-10.8548197611694
4.54264083587538,-22.2865560645963,-20.1807073181589,5.35244180501557,-6.61616073818581,-39.940354003295,-11.2919833062932,63.5067065092509,-21.9717073793559,-2.33634003830845,-9.97993144446842
4.68550561910304,-22.291192575144,-20.158428874497,5.32463844720309,-6.53633160756438,-39.8967378675937,-11.251096027719,63.5247699065395,-21.5060968699336,-3.33780693551591,-9.10936346552023
4.81455036972101,-22.294115054894,-20.1335181698108,5.29467753926729,-6.4423141723066,-39.8446672078198,-11.2040353387583,63.5252359052062,-21.0267226389811,-4.34426362251852,-8.24738221994509
4.92932065929504,-22.2948924156507,-20.1059140987614,5.26252654566698,-6.3334889946104,-39.7837545620199,-11.1506957455545,63.5062261363558,-20.5348594082841,-5.35174331251853,-7.39767265861957
5.02953850573897,-22.2930991522993,-20.0755757684738,5.22816147502305,-6.20934117835575,-39.7136760295368,-11.0910244411168,63.4659682667676,-20.0319167307162,-6.35670848074275,-6.5633099205058
5.11509770526332,-22.2883229501116,-20.0424847571423,5.19156792714555,-6.06947322879118,-39.6341750842926,-11.025024083414,63.4028303260626,-19.5194243064001,-7.35605633434242,-5.74675759395311
5.18605505960351,-22.2801721987838,-20.0066471321057,5.15274236578991,-5.91361667107287,-39.5450652177979,-10.9527545150012,63.3153538408317,-18.9990141145575,-8.34710607821844,-4.9498892869209
5.24261770314071,-22.2682831941837,-19.9680951554133,5.11169360602861,-5.74164200890772,-39.4462314826774,-10.8743333657715,63.2022848054077,-18.4723999889067,-9.32757213554156,-4.1740291471585
5.28512687418433,-22.2523268116828,-19.9268886096465,5.0684444797156,-5.55356659408977,-39.3376310523878,-10.7899355237293,63.0626015495074,-17.9413553991461,-10.2955278071422,-3.42000646110698
5.31403861755563,-22.2320144462957,-19.8831156853156,5.02303361822241,-5.34955999926493,-39.2192929400805,-10.6997914946423,62.8955386302792,-17.4076902929369,-11.2493636776674,-2.68821940450023
5.32990204595701,-22.2071030348998,-19.8368933829898,4.97551726852873,-5.12994654496812,-39.0913170281158,-10.6041846976697,62.7006059806518,-16.8732278908993,-12.1877445446805,-1.97870332164923
5.33333591794979,-22.177399005314,-19.7883673979846,4.92597103860211,-4.89520472604584,-38.9538725514841,-10.5034477630317,62.477602687917,-16.3397822999026,-13.1095679101843,-1.29119948398208
5.32500440155144,-22.1427610350135,-19.7377114736383,4.87449145500616,-4.6459634034433,-38.8071961556295,-10.3979579146782,62.226624951937,-15.8091377097354,-14.0139262630113,-0.625221026184906
5.3055929741244,-22.1031015459885,-19.6851262311449,4.82119721322324,-4.38299476243958,-38.6515896155469,-10.2881315403302,61.948067971384,-15.2830297700805,-14.900074597516,0.0198864256678788
5.2757854506002,-22.0583869088334,-19.6308375067898,4.76623000868689,-4.10720417644963,-38.487417264245,-10.1744180739483,61.6426217167802,-14.7631295310954,-15.7674039239657,0.644891130872779
5.2362431232992,-22.0086363762376,-19.5750942463487,4.70975485023457,-3.81961724963723,-38.3151031410315,-10.0572933366764,61.3112607588456,-14.2510301065002,-16.6154209607847,1.25062961547045
5.18758693032084,-21.9539198110107,-19.5181660184125,4.65195977443818,-3.52136443564063,-38.1351278390518,-9.93725249436968,60.9552285187406,-13.7482360186567,-17.4437337608976,1.83796947362944
5.13038344257846,-21.8943543138418,-19.4603402140406,4.5930548987411,-3.2136637322141,-37.9480250123033,-9.81480278946919,60.5760164828359,-13.2561550381376,-18.2520426863063,2.40778051417278
5.06513527464113,-21.8300998897573,-19.4019190017085,4.53327077496382,-2.8978020187881,-37.7543774982284,-9.69045619559926,60.1753390699064,-12.7760922466471,-19.0401358707415,2.96091375392157
4.99227629077018,-21.7613543204059,-19.3432161058627,4.4728560331836,-2.5751156294342,-37.5548130216267,-9.5647221323292,59.7551049480503,-12.3092460220018,-19.8078880912353,3.49818740292935
4.91217171044641,-21.6883474333724,-19.2845534753868,4.41207433812715,-2.2469707409309,-37.34999946374,-9.43810037174842,59.3173856711189,-11.8567056433551,-20.5552618298716,4.02037872205306
4.82512293790237,-21.6113349798942,-19.2262579047747,4.35120071404384,-1.91474411305951,-37.1406397007843,-9.3110742701805,58.8643825409186,-11.4194502208466,-21.2823092772246,4.52822048187421
4.73137667104881,-21.5305923468303,-19.1686576652765,4.29051732741494,-1.5798046562768,-36.9274660341329,-9.18410446482922,58.3983926035435,-10.9983486538688,-21.9891741221041,5.02240071759097
4.63113760972416,-21.4464083351281,-19.1120791954304,4.23030884736036,-1.2434962305895,-36.7112342484347,-9.05762318025076,57.9217746579266,-10.5941603143773,-22.6760921715473,5.50356454816264
4.52458390093548,-21.3590792338168,-19.0568438902078,4.17085752841942,-0.907122004408741,-36.4927173464908,-8.93202928601577,57.4369160945624,-10.2075361437722,-23.3433901023845,5.97231698873042
4.4118843431581,-21.2689034050713,-19.0032650159325,4.11243817692409,-0.571930624128773,-36.2726990227247,-8.80768422952534,56.9462012967127,-9.83901986180987,-23.9914819046629,6.42922590023188
4.29321632867369,-21.1761765717552,-18.9516447655519,4.05531316935095,-0.239104365507828,-36.0519669486696,-8.68490893739721,56.4519822321947,-9.48904903483936,-24.6208628080999,6.87482445568933
4.16878353037603,-21.0811879638346,-18.9022714579428,3.99972769003208,0.0902506380091036,-35.8313059506204,-8.56398174249121,55.9565517476904,-9.15795584433668,-25.2321006928003,7.30961273954891
4.03883242867001,-20.984217434418,-18.8554168785087,3.94590534863972,0.415112061776306,-35.6114911610629,-8.44513735914329,55.4621199526051,-8.84596751692651,-25.8258251938038,7.73405832847644
3.90366691134102,-20.8855336010291,-18.8113337590478,3.89404432556108,0.734546980985195,-35.393281224336,-8.32856689709834,54.9707939470988,-8.55320649471412,-26.4027149115922,8.14859591825509
3.76366034831004,-20.7853930059864,-18.7702534037821,3.84431417454207,1.04771546940832,-35.1774116350032,-8.2144188698749,54.4845610115651,-8.27969051915674,-26.9634833018319,8.55362623596592
3.61926472740138,-20.6840402266037,-18.7323834828602,3.79685338694877,1.35387233926829,-34.9645882839448,-8.1028011140865,54.0052752375755,-8.02533286393803,-27.50886390175,8.94951458439971
3.4710166214503,-20.5817088073711,-18.6979060291382,3.75176779332533,1.65236719781111,-34.7554812815642,-7.99378349911652,53.5346474510666,-7.78994297686565,-28.0395955555918,9.33658940435638
3.31953992859548,-20.4786228370753,-18.6669756842153,3.70912984851537,1.94264302297371,-34.5507191208858,-7.88740128199478,53.0742381678112,-7.57322777368388,-28.5564082553045,9.71514123064647
3.16554547664919,-20.3749989573215,-18.6397182445228,3.66897881765215,2.22423346858647,-34.3508832378811,-7.783658956956,52.6254532390279,-7.37479377130572,-29.060010149799,10.0854223874865
3.0098277018389,-20.2710485683441,-18.6162295586131,3.63132185150425,2.49675910156216,-34.156503023654,-7.68253446109512,52.1895417972362,-7.19415016718169,-29.5510762210372,10.4476477404078
2.85325869663985,-20.1669799959986,-18.5965748233818,3.59613591031071,2.75992275613134,-33.968051342711,-7.58398361830753,51.7675960995916,-7.03071288192024,-30.0302390773207,10.8019967975876
2.6967799663049,-20.0630004002428,-18.5807883203233,3.56337046529349,3.0135041699899,-33.7859406109583,-7.48794472442167,51.3605528836981,-6.88380949867971,-30.4980822503068,11.1486174148215
2.54139223403568,-19.9593172365961,-18.5688736237197,3.5329508776959,3.25735404852098,-33.6105194841679,-7.39434319219384,50.9691958922154,-6.75268496764331,-30.9551362780487,11.4876312802926
2.38814358396675,-19.856139123025,-18.560804300971,3.5047823287312,3.49138768934612,-33.4420702032599,-7.30309618428955,50.5941592787961,-6.63650790843107,-31.4018776988214,11.8191412244953
2.23811612059611,-19.7536760116936,-18.5565251104677,3.47875415244893,3.71557829410349,-33.2808066395409,-7.21411716497515,50.235931669577,-6.53437734581822,-31.8387308668403,12.1432402203096
2.09241114312195,-19.6521386158211,-18.5559536840033,3.45474440826629,3.92995009899498,-33.1268730817361,-7.12732029639902,49.8948607129351,-6.44532975296035,-32.2660722496149,12.4600217300661
1.95213257622434,-19.5517370947118,-18.5589826592539,3.43262452057221,4.1345714660371,-32.9803438044307,-7.04262459431537,49.5711579998416,-6.36834633650913,-32.6842366286285,12.7695908616161
1.81836807064558,-19.4526790523412,-18.5654822051266,3.41226380944474,4.3295480849234,-32.8412234506562,-6.95995774582563,49.2649042757252,-6.30236055730045,-33.093524463978,13.0720756614047
1.69216682497976,-19.3551669528078,-18.5753028619797,3.3935337405594,4.51501643474938,-32.7094482481217,-6.87925948461394,48.9760548923559,-6.24626592059861,-33.4942096396662,13.3676378306882
1.57451288545706,-19.2593950948213,-18.5882786033882,3.37631173583616,4.69113764467962,-32.5848880600255,-6.80048442098163,48.7044454663888,-6.19892408516957,-33.8865468751103,13.6564822007371
1.46629265655397,-19.1655463139264,-18.6042300177317,3.36048440963055,4.85809187525449,-32.4673492503073,-6.72360423435183,48.4497977229879,-6.15917333539824,-34.2707782288458,13.9388644156902
1.36825592815837,-19.0737885949633,-18.6229675049413,3.34595012558793,5.01607331945669,-32.3565783228867,-6.64860915192595,48.2117255122101,-6.12583744189952,-34.6471382866832,14.2150964141962
1.28097128612347,-18.9842717798491,-18.6442943845715,3.33262080225137,5.16528589670464,-32.2522662765221,-6.57550865575888,47.9897409945088,-6.09773490704503,-35.0158577951942,14.4855494519112
1.20477955687579,-18.8971245485509,-18.6680098169741,3.32042292823768,5.3059396867182,-32.1540536008043,-6.50433138030619,47.7832609991185,-6.07368855605315,-35.3771656627036,14.7506545534842
1.13975260339471,-18.8124518350448,-18.6939114523382,3.30929777998218,5.43824812693797,-32.0615358242378,-6.43512418454978,47.5916135647754,-6.05253539877912,-35.7312893878743,15.0109004126819
1.08566800809785,-18.7303328161557,-18.7217977434308,3.29920086747861,5.56242597736972,-31.974269514341,-6.3679504095286,47.4140446780848,-6.03313665947817,-36.0784540703752,15.2668288649482
1.0420107376692,-18.6508195808054,-18.7514698847718,3.29010066636281,5.67868803738505,-31.891778624102,-6.30288736504444,47.2497252322543,-6.01438785441734,-36.4188802017427,15.5190281398981
1.00800885578595,-18.5739365523636,-18.7827333692088,3.28197672709455,5.78724857656951,-31.8135610785168,-6.24002312704502,47.0977582356929,-5.99522878783729,-36.7527804400963,15.7681241707932
0.982701919128614,-18.4996807005696,-18.8153991769475,3.274817281289,5.88832141582557,-31.7390954982492,-6.17945276448346,46.9571863023937,-5.97465333167933,-37.0803555660986,16.0147703014928
0.965031030729049,-18.4280225448968,-18.8492846278056,3.26861648855413,5.98212056868921,-31.6678479651158,-6.12127414484511,46.8269994532858,-5.95171885339957,-37.4017898269044,16.2596357892056
0.953933207019495,-18.3589079194433,-18.8842139339238,3.26337148323858,6.06886132953065,-31.5992787471024,-6.06558348755213,46.7061432533852,-5.92555516348101,-37.71724591172,16.5033935465306
0.948422583928007,-18.292260440041,-18.9200184895502,3.25907938892322,6.14876167714535,-31.5328489188808,-6.01247084425706,46.5935273084341,-5.89537287462171,-38.0268598527226,16.7467075890051
0.94764632249818,-18.227984586735,-18.9565369303542,3.25573446759006,6.22204385221422,-31.4680268349603,-5.96201568454036,46.4880341481968,-5.86047109641065,-38.3307361843398,16.9902206508127
0.950910639499796,-18.1659692897066,-18.9936149909402,3.25332555780895,6.28893596962491,-31.4042944318296,-5.91428275284592,46.3885285277401,-5.82024442278656,-38.6289437158081,17.2345424081508
0.957678955794078,-18.1060918860521,-19.0311051886418,3.25183393240788,6.34967354329151,-31.3411533477832,-5.86931833798711,46.293867177787,-5.77418919193343,-38.9215122829292,17.480238716159
0.967548156707797,-18.0482223010757,-19.06886636475,3.25123167517055,6.40450082636149,-31.2781308525131,-5.82714706655367,46.2029090298922,-5.72190900149527,-39.2084308380234,17.7278222213132
0.980210469572807,-17.9922273024558,-19.1067631197161,3.25148064340053,6.4536718926099,-31.2147855734212,-5.78776930611477,46.1145259351168,-5.66311944660502,-39.4896471921864,17.9777446494403
0.995408314672219,-17.9379746789966,-19.1446651852216,3.25253205229275,6.49745139634665,-31.1507129932518,-5.75115925091138,46.027613889046,-5.59765202198974,-39.7650696317471,18.2303909859703
1.01288848637407,-17.8853372069927,-19.182446782642,3.25432668934399,6.53611494797139,-31.0855506760691,-5.71726376121057,45.9411047713378,-5.52545710412361,-40.0345705025805,18.4860756632244
1.03236066056241,-17.8341962854193,-19.2199860236432,3.2567957424327,6.56994903827517,-31.0189831586528,-5.68600202825426,45.8539786023225,-5.44660591630519,-40.2979917167399,18.7450407595431
1.05346372746572,-17.7844451444879,-19.2571644130326,3.25986220317292,6.59925044577867,-30.9507464248998,-5.65726612779334,45.765276309805,-5.36129138469298,-40.5551520159478,19.0074561131388
1.07574194003519,-17.7359915582792,-19.2938665148829,3.263442787512,6.6243250726595,-30.8806318645336,-5.63092249958104,45.6741129841139,-5.26982781620518,-40.8058557483705,19.2734211774236
1.09863148214896,-17.6887600188195,-19.329979839344,3.26745029841927,6.64548617661816,-30.8084896068508,-5.60681434875536,45.5796915773871,-5.1726493643007,-41.0499028798297,19.5429684032246
1.12145695771501,-17.6426933544563,-19.3653949987603,3.27179634089204,6.66305199620921,-30.7342311171646,-5.58476491527165,45.4813169738032,-5.07030728749417,-41.2870999507824,19.8160679218862
1.14343661710458,-17.5977537994156,-19.4000061664581,3.27639428717164,6.67734280301771,-30.6578309491124,-5.56458150961364,45.3784103217143,-4.96346603962459,-41.5172716862596,20.0926333076488
1.16369493303141,-17.5539235439439,-19.4337118495031,3.28116238074337,6.68867745298257,-30.5793275604279,-5.54606017497289,45.2705234783235,-4.85289825648729,-41.7402729532186,20.3725282016091
1.18128139076054,-17.5112048136959,-19.4664159605168,3.2860268635255,6.69736954710099,-30.4988231222825,-5.5289908111778,45.1573533757268,-4.73947872122261,-41.956000731614,20.6555735708478
1.19519499331058,-17.4696195399255,-19.4980291479353,3.29092501219329,6.70372334320231,-30.4164822806215,-5.51316258143552,45.03875607705,-4.62417740172136,-42.1644057278894,20.9415553536098
1.20441493523095,-17.4292086875107,-19.5284703221535,3.29580797296014,6.7080295816017,-30.3325298584554,-5.49836941276096,44.9147602551548,-4.50805165542193,-42.365503228754,21.2302322156297
1.20793917204439,-17.3900313080135,-19.5576682982746,3.30064328491739,6.71056139688208,-30.2472475158598,-5.48441539018677,44.785579794495,-4.39223768811104,-42.5593827843246,21.5213431293308
1.20483433366031,-17.3521633828299,-19.5855634660726,3.3054169823285,6.71157048448145,-30.1609694045796,-5.47111983742927,44.6516251892376,-4.27794133469258,-42.7462163313122,21.8146144964039
1.19430290388438,-17.3156965188253,-19.6121093950653,3.31013517403056,6.71128367271748,-30.074076865172,-5.45832188219163,44.5135133884712,-4.16642820638661,-42.9262644166934,22.1097665628657
1.17577735990767,-17.2807365561513,-19.6372742854179,3.31482501837835,6.70990001993756,-29.9869922201599,-5.44588432733706,44.3720757240681,-4.05901322806728,-43.0998802446046,22.4065189113657
1.14905686594726,-17.2474021445208,-19.6610421803696,3.3195350420579,6.70758851849526,-29.900171722497,-5.43369668467867,44.2283635507919,-3.95704957837321,-43.2675113251796,22.7045948452812
1.1145111102666,-17.2158233385774,-19.6834138615551,3.32433478364342,6.70448644937151,-29.8140977283581,-5.42167726750168,44.0836512331016,-3.86191704591968,-43.4296985473836,23.0037245008447
1.07338802768354,-17.1861402534156,-19.704407356199,3.32931377290326,6.7006983986217,-29.7292701766165,-5.40977427653679,43.9394361293287,-3.7750098229455,-43.587072536093,23.3036465464561
1.02827244550332,-17.1585018067062,-19.7240579968136,3.33457988282321,6.6962959216291,-29.6461974717192,-5.39796585261077,43.7974352523094,-3.69772376469706,-43.7403471993216,23.6041083649001
0.983728000336578,-17.133064555149,-19.7424179905941,3.34025711275103,6.69131782328325,-29.5653868792591,-5.38625910998671,43.6595783282697,-3.63144314148352,-43.8903104355962,23.9048646722169
