Finger Velocity,Scap_X,Scap_Y,Scap_Z,Shoulder horiz abd-adduction,Shoulder flexion-extension,Shoulder internal-external rotation,elbow flexion-extension,forearm pronation-supination,wrist flexion-extension,wrist radial-ulnar deviation
2.34141661692036,-24.5654975020618,-14.6236216148822,5.22778299211613,-6.64410593033377,-40.7664507476373,-12.1059144235812,57.6313814760803,-26.4757036016108,2.84636161775471,-17.6993759274037
3.04029888679269,-24.6137764585582,-14.6306623779769,5.25110784044239,-6.72806680853762,-40.5612387571744,-12.200316463887,57.7461182371921,-26.1913988792895,2.86824693833422,-17.6067422156808
3.81405798425768,-24.6671946316978,-14.6357934040965,5.27425177722913,-6.82051245524992,-40.3252080748118,-12.2955720859405,57.8957331320522,-25.8738109166946,2.85663837184889,-17.454062099866
4.65846607403985,-24.7258944509573,-14.638375025708,5.29682996120682,-6.92066612147035,-40.0560748189706,-12.3903206575697,58.083368924691,-25.5210482147805,2.81155265561425,-17.2398076140116
5.5695928133006,-24.7899774765945,-14.6377184324764,5.31843384536967,-7.02753525190407,-39.7516501175607,-12.4830737715778,58.3119782906997,-25.131271044919,2.73391142106933,-16.9636435946383
6.54323454591731,-24.8594999710988,-14.6330921166395,5.33863492499156,-7.13992024415068,-39.4098730525912,-12.5722325680438,58.5842750074035,-24.7027093602844,2.62551479579862,-16.6264295486318
7.57467895493004,-24.93446893824,-14.623729263325,5.35698839943301,-7.25642931815486,-39.0288433434348,-12.6561095467007,58.9026874096568,-24.2336861055278,2.48898537096757,-16.2301833293967
8.65861391872067,-25.0148387613324,-14.6088358752692,5.37303668781782,-7.3754992247825,-38.6068531132335,-12.7329546806807,59.2693142713324,-23.7226473915246,2.32768806908404,-15.7780117630746
9.78910782297039,-25.1005085625679,-14.5875994035362,5.38631277248452,-7.49542127534734,-38.1424170767176,-12.8009854137719,59.6858830667281,-23.1682008646791,2.14563199697451,-15.2740142200282
10.9596304629385,-25.1913203908911,-14.5591976499877,5.39634337869662,-7.61437196030287,-37.6343004939591,-12.858419898666,60.1537104321015,-22.569163277915,1.94736016711369,-14.7231651159646
12.1630999670699,-25.2870583263387,-14.5228077114504,5.40265203441561,-7.73044726147192,-37.0815442544201,-12.9035126343732,60.673664616965,-21.9246177260815,1.73783221832032,-14.131180658687
13.391948015473,-25.3874485657558,-14.4776147482587,5.40476208602009,-7.84169964637044,-36.4834864969488,-12.9345915014563,61.2461298147058,-21.2339802290792,1.52230419394591,-13.5043740972448
14.6381986655011,-25.4921605332257,-14.4228203796512,5.40219976776927,-7.94617665038125,-35.8397802447025,-12.9500950831078,61.870972506367,-20.4970743425047,1.30620830325515,-12.8495025822818
15.8935574958175,-25.6008090417122,-14.357650534714,5.39449742899605,-8.04195989459716,-35.1504066412322,-12.9486091041959,62.5475103362265,-19.7142112782905,1.0950346574774,-12.1736078051596
17.1495084358577,-25.71295751778,-14.2813626207361,5.38119701246803,-8.12720336589237,-34.4156835018657,-12.9289008210978,63.2744845407634,-18.8862716882539,0.894216380462505,-11.4838520456531
18.3974159563475,-25.8281222827804,-14.193251910326,5.36185385246561,-8.2001698197361,-33.6362690242799,-12.8899502500981,64.0500375285403,-18.0147839189505,0.709019253189644,-10.7873511979876
19.6286304450166,-25.9457778581048,-14.092657090351,5.33604082503976,-8.25926425864427,-32.8131606235936,-12.8309772278648,64.8716977859337,-17.1019923650524,0.544437139180773,-10.0910067802251
20.8345946721842,-26.0653632306961,-13.9789649538065,5.30335283991948,-8.30306357715855,-31.9476889690501,-12.7514634496588,65.736374769121,-16.1509087464148,0.405094841765044,-9.4013398322257
22.0069493111649,-26.1862889819864,-13.8516142456374,5.26341162082596,-8.33034163324248,-31.0415074018691,-12.6511688205856,66.6403667329316,-15.1653389343009,0.295160657316014,-8.72433081291041
23.1376355438049,-26.3079451519196,-13.7100986933244,5.21587068617299,-8.34008919324852,-30.0965770096463,-12.5301416680184,67.5793844431422,-14.1498785554401,0.218271455661816,-8.06527081169311
24.2189928654536,-26.4297096817525,-13.5539692627683,5.16042041830789,-8.33152838845011,-29.1151477263739,-12.388722583618,68.5485933418093,-13.1098721381756,0.177473363872539,-7.42863025519908
25.2438503132395,-26.5509572562095,-13.3828356831541,5.09679309432518,-8.30412150342009,-28.0997359175299,-12.2275418783112,69.5426759448029,-12.05133302904,0.175180907072774,-6.81795157775661
26.2056094796618,-26.6710683461875,-13.1963672887402,5.02476774232555,-8.25757408824093,-27.0530989844897,-12.0475108347947,70.5559150616521,-10.9808245222047,0.213156761451617,-6.23577191315669
27.098317840732,-26.7894382340934,-12.994293239135,4.94417468403666,-8.19183255373097,-25.9782075651373,-11.8498071249958,71.5822969191073,-9.90530625772108,0.292513158727895,-5.68358073030623
27.9167311230467,-26.9054857833423,-12.776402205196,4.85489962982067,-8.10707657592937,-24.8782159086018,-11.6358549206966,72.6156315811282,-8.83195347639911,0.41373455281917,-5.16181553859513
28.6563636548835,-27.018661695749,-12.5425416393097,4.75688720510685,-8.00370679832002,-23.7564309659114,-11.407300358265,73.6496863760067,-7.76795963629551,0.576719588500053,-4.66989649353854
29.313525889469,-27.1284559940656,-12.2926167746747,4.65014380465716,-7.88232846536293,-22.6162806815847,-11.1659831155053,74.678326579091,-6.72033472189855,0.780838921798974,-4.20629820344607
29.8853485500645,-27.2344044793358,-12.026589506969,4.53473968860759,-7.74373173593189,-21.4612819143858,-10.9139049153392,75.6956565666628,-5.69571200508301,1.02500425708274,-3.76865459657486
30.3697931220422,-27.3360939467746,-11.744477299754,4.41081025058947,-7.58886950107084,-20.2950083722556,-10.6531957879959,76.696154217728,-4.70017498422819,1.30774326389091,-3.35389066374065
30.7656487018284,-27.4331659977574,-11.4463522286217,4.2785564041345,-7.41883356166477,-19.1210589163096,-10.3860789044028,77.6747915758708,-3.73911393251328,1.6272749247951,-2.95837346955858
31.0725155012652,-27.5253193549032,-11.1323402488158,4.13824404840672,-7.23483000716662,-17.943026562959,-10.1148347437756,78.6271356723517,-2.8171183374188,1.98158035962085,-2.5780741382672
31.2907755930533,-27.6123106658664,-10.8026207429527,3.9902025865914,-7.03815458078564,-16.7644684873953,-9.84176528678274,79.5494248441582,-1.93790803058138,2.36846518021146,-2.20873256592656
31.4215517626424,-27.6939538610445,-10.4574263795488,3.83482248144917,-6.83016872745067,-15.5888773101251,-9.56915884430562,80.4386176787837,-1.10430250287861,2.78561077519604,-1.84601729069864
31.4666555980826,-27.7701182024534,-10.0970432872279,3.67255184771914,-6.61227690788432,-14.4196539358636,-9.29925605312557,81.2924136629411,-0.318225178323401,3.23061339582785,-1.48567409780751
31.4285261954707,-27.84072521846,-9.72181152337443,3.50389210474637,-6.38590563500604,-13.2600822098498,-9.03421750380914,82.1092464836345,0.419262481540294,3.70101132451324,-1.12365834775085
31.3101610769742,-27.9057447564151,-9.3321257920048,3.32939274481615,-6.15248455688757,-12.1133056540541,-8.77609341728138,82.8882525396275,1.10790319387495,4.19430161466341,-0.756247513640099
31.1150411039927,-27.9651903998969,-8.92843634594364,3.1496453090152,-5.91342978438718,-10.9823065363772,-8.5267957514938,83.6292184422831,1.74816877491946,4.70794879466833,-0.380131857085294
30.8470513126886,-28.0191144920225,-8.51124999041292,2.9652766979869,-5.67012955378419,-9.86988750283338,-8.28807308891037,84.3325120591357,2.34117377779426,5.23938847170452,0.00751753404605169
30.5103996958461,-28.0676029879583,-8.08113108281156,2.77694197566651,-5.42393223127833,-8.77865596381068,-8.06148862091663,84.9990019838506,2.88858311205185,5.78602893458277,0.409003036784065
30.1095359971116,-28.1107703341171,-7.63870239727696,2.58531684684832,-5.17613660135495,-7.71101137195308,-7.84840150266237,85.6299702492063,3.39251798177518,6.34525366190593,0.826075944632397
29.6490725653042,-28.1487545402667,-7.18464570539158,2.39109000237747,-4.92798432482433,-6.6691354606261,-7.64995180149219,86.2270227132066,3.85546352024259,6.91442715819897,1.25993126423402
29.1337092331925,-28.1817125746851,-6.71970192913361,2.19495552848088,-4.68065440044724,-5.65498543002787,-7.46704920810661,86.7920009392376,4.28018060335004,7.49090585767537,1.7112195823128
28.5681640345108,-28.2098161754171,-6.2446707455162,1.99760556911012,-4.43525941711806,-4.67028998531194,-7.30036562738487,87.3268986610157,4.66962354374603,8.07205503686392,2.18007342935632
27.9571113553833,-28.233248137362,-5.76040954866966,1.79972341143712,-4.1928433433682,-3.71654806606103,-7.15033171629942,87.8337851634993,5.02686472637705,8.65527183039054,2.66614539599809
27.3051288354912,-28.2521991057198,-5.2678316958659,1.60197713536817,-3.95438057086206,-2.79503006638747,-7.01713738485222,88.3147371911873,5.35502674761512,9.23801361695685,3.16865518596574
26.6166539979094,-28.2668648791508,-4.76790398331978,1.40501393212087,-3.72077591372173,-1.90678132085472,-6.90073622078394,88.7717803579071,5.6572222553719,9.81783031516054,3.68644280518656
25.8959512063669,-28.277444203664,-4.26164331894755,1.20945516024381,-3.49286526767378,-1.05262761256794,-6.80085374687844,89.2068404973613,5.93650143873706,10.3923985818184,4.21802519845945
25.1470891404691,-28.2841370288332,-3.75011257646095,1.01589217240338,-3.27141664713762,-0.233182447098418,-6.71699937531134,89.6217049650877,6.1958069577407,10.9595555964211,4.76165386382309
24.3739285622524,-28.2871432047154,-3.23441562054892,0.824882911156738,-3.05713133910178,0.551144162621631,-6.64848187528355,90.0179935737842,6.43793600900643,11.517330059028,5.31537129588885
23.5801197425519,-28.2866616125171,-2.71569148786873,0.63694923654657,-2.8506449429834,1.30013563777183,-6.59442810025666,90.397138603817,6.66550916665486,12.063968198465,5.87706450543486
22.7691085449664,-28.2828897294791,-2.19510770285134,0.452574917096176,-2.6525281152018,2.01375771306733,-6.55380462632467,90.7603731645232,6.88094560101091,12.5979529422928,6.44451429479592
21.9441498494376,-28.276023615878,-1.67385271253148,0.272204194252002,-2.46328691229118,2.69214644411969,-6.52544184974811,91.1087270716661,7.08644424877892,13.1180149128805,7.01543941034548
21.1083267543045,-28.2662582760103,-1.15312744911764,0.0962408214680466,-2.28336272200098,3.33559552512335,-6.5080600014045,91.443029333988,7.28397048349086,13.6231345635307,7.58753513610041
20.264573838114,-28.2537882963555,-0.634136071636094,-0.0749525178183542,-2.1131318687701,3.9445431046213,-6.50029647382607,91.7639162947067,7.47524781509704,14.1125355019202,8.15850632620582
19.4157026974383,-28.2388086243441,-0.118075986249036,-0.241054499354038,-1.95290505286466,4.51955829230688,-6.50073382532914,92.0718444488309,7.66175413553891,14.585669770295,8.72609527011496
18.5644280047692,-28.2215153371984,0.393872713536217,-0.401785231425406,-1.80292681672293,5.06132754320195,-6.50792781875798,92.3671069573473,7.84472202759408,15.0421964611857,9.28810510228972
17.713392444948,-28.2021062628139,0.900558210646116,-0.556906184085219,-1.66337523149647,5.57064108951413,-6.52043486358308,92.6498529066007,8.02514267036882,15.4819554741121,9.84241967556773
16.8651890773347,-28.1807813426083,1.40086812035609,-0.706220038942289,-1.53436197453668,6.04837957591032,-6.53683826243958,92.9201084127607,8.203772904497,15.9049384357316,10.3870208991745
16.0223799171715,-28.1577426584337,1.89374058834402,-0.849570506962571,-1.41593293562708,6.49550104622395,-6.55577272378077,93.1777987412666,8.3811450568366,16.3112588208604,10.9200044984496
15.1875098134429,-28.1331940756834,2.37817504870692,-0.98684213008001,-1.30806945181939,6.91302842399027,-6.57594669119755,93.4227706922901,8.55757915928157,16.7011231567297,11.4395949941787
14.3631150007315,-28.1073404812228,2.85324234449563,-1.11796003879615,-1.21069022889661,7.30203761673101,-6.59616214790118,93.6548145871347,8.7331972176996,17.0748049119508,11.9441604486949
13.5517259980965,-28.0803866207154,3.31809392112929,-1.24288958908231,-1.12365395892189,7.66364634862951,-6.61533167049678,93.8736852696258,8.9079391834889,17.4326223072771,12.432227219659
12.7558647994083,-28.0525355704306,3.77196983343715,-1.36163575908001,-1.04676258652041,7.99900378945881,-6.63249261769596,94.0791216091756,9.08158025114088,17.774920870618,12.9024946378211
11.9780365298819,-28.0239869149676,4.21420535365883,-1.47424216559182,-0.979765119691209,8.30928100876075,-6.64681842928602,94.2708640653812,9.25374906935523,18.1020611222437,13.3538492115136
11.2207159188455,-27.9949347375372,4.64423602091317,-1.58078957669879,-0.922361841908522,8.59566225568228,-6.65762705757103,94.4486699591681,9.4239464391887,18.4144113480041,13.7853776856139
10.486329048536,-27.9655655516202,5.06160102497743,-1.68139385242337,-0.874208776682936,8.85933705276717,-6.66438654905903,94.6123261995034,9.59156409794003,18.7123450323462,14.1963780832029
9.77723087622322,-27.9360563043867,5.46594486752127,-1.77620332602628,-0.834922285389095,9.10149309203828,-6.66671775331024,94.7616593359174,9.75590325066732,18.9962422120067,14.5863677745262
9.09567899016024,-27.9065725662875,5.85701729535798,-1.86539571827734,-0.804083729694292,9.32330992358944,-6.66439409137084,94.8965429373111,9.9161925985958,19.2664938003259,14.955087671182
8.44380395325318,-27.8772669987311,6.23467155489658,-1.94917472953055,-0.7812441782393,9.52595342224775,-6.65733830328474,95.0169024246368,10.071605705244,19.5235078298111,15.3025018223297
7.82357642679855,-27.848278172577,6.59886107269817,-2.02776646644335,-0.765929164990767,9.71057100482449,-6.64561613395101,95.122717595958,10.2212776165083,19.767716556231,15.628791957076
7.23677108166424,-27.8197297959422,6.9496347175352,-2.10141583750154,-0.757643511363128,9.87828755432566,-6.62942700643573,95.2140231677101,10.3643206984505,19.9995834389565,15.9343468257868
6.68492715325303,-27.7917303942557,7.28713083550737,-2.17038301129126,-0.755876217221479,10.0302019981849,-6.60909185071567,95.2909077117883,10.4998396770932,20.219609138894,16.2197465028229
6.1693054733783,-27.7643734610152,7.61157026451859,-2.23493998959238,-0.760105419880577,10.1673844922524,-6.585038379939,95.3535113947088,10.6269458653089,20.4283358423656,16.4857420999951
5.69084205446317,-27.7377380634271,7.92324852989616,-2.29536731317214,-0.769803418198756,10.2908741763619,-6.55778421913923,95.4020229256976,10.7447705478288,20.6263494106669,16.7332315872152
5.2500989833988,-27.7118898511896,8.22252741066175,-2.35195089632908,-0.784441754761373,10.4016774767229,-6.52791838348777,95.4366760995195,10.8524774694511,20.8142790483956,16.9632326056616
4.84721467424553,-27.6868823888821,8.50982605647778,-2.40497897864771,-0.803496337270008,10.5007669266408,-6.49608166918016,95.4577462801747,10.9492743397322,20.9927943553485,17.1768532737468
4.48185750281218,-27.6627587159941,8.78561182965802,-2.45473918700278,-0.826452562028921,10.5890804659125,-6.46294655682544,95.4655471144575,11.0344232397818,21.1625997644643,17.3752620247309
4.15318932293805,-27.6395530313398,9.0503910401204,-2.50151571147097,-0.852810383709375,10.6675211713298,-6.42919723257911,95.4604276920284,11.1072498035689,21.3244264786663,17.559657488288
3.85984774856241,-27.6172923988501,9.30469973124555,-2.54558660892742,-0.882089260639564,10.7369573691636,-6.39551030451577,95.4427702869282,11.167151053056,21.4790221194041,17.7312393544858
3.59995731608731,-27.5959983796128,9.54909466278202,-2.58722125474078,-0.913832894848927,10.7982230802831,-6.36253673241036,95.4129887334319,11.2136017915544,21.6271383976745,17.8911810529181
3.37117843807649,-27.5756885096862,9.78414462578343,-2.62667796685294,-0.947613680927689,10.8521187439367,-6.33088540554094,95.371527416006,11.2461594954345,21.7695172067616,18.0406049501418
3.17079855281852,-27.5563775621507,10.0104222155006,-2.66420182950924,-0.983036777128035,10.899412155601,-6.30110870624752,95.318860795508,11.2644676834697,21.906875600218,18.1805606161621
2.99586239434876,-27.5380785530427,10.2284961809148,-2.70002274707675,-1.01974371496995,10.9408395403126,-6.27369029645683,95.255493354982,11.2682577811288,22.039890151843,18.3120065382632
2.84332975551273,-27.5208034737289,10.4389244625187,-2.734353761709,-1.05741546820584,10.9771066699267,-6.2490352667469,95.1819598283876,11.2573495309475,22.1691812067917,18.4357954835193
2.71024238619814,-27.5045637566127,10.6422480204754,-2.7673896712688,-1.09577490752395,11.0088899247853,-6.22746269736424,95.098825569776,11.2316500275606,22.2952975444919,18.5526635552816
2.59387922766552,-27.4893705046522,10.8389855408703,-2.79930598434827,-1.13458857496892,11.0368371997837,-6.20920060216584,95.0066869205774,11.1911514775517,22.4187019941249,18.6632228702206
2.49188172678736,-27.4752345346366,11.0296290875849,-2.83025824570011,-1.17366772336566,11.0615685620543,-6.19438316331945,94.9061714319098,11.1359278041056,22.5397585604166,18.7679576972998
2.40233713979636,-27.4621662974398,11.2146407429878,-2.86038175753285,-1.21286858031097,11.0836765808904,-6.1830501183176,94.7979377962661,11.0661302401889,22.6587216125384,18.8672238354687
2.32381504464612,-27.4501757452874,11.3944502542769,-2.88979171141027,-1.25209181064755,11.1037262684132,-6.17514813072713,94.6826753430702,10.9819820845201,22.7757276520675,18.9612509558355
2.25535852180723,-27.4392722162074,11.5694536746263,-2.91858373374782,-1.29128116458927,11.1222545911335,-6.17053396003856,94.5611029611799,10.8837728285078,22.890790103474,19.0501475940304
2.19643559168273,-27.4294643985685,11.7400129593598,-2.94683483602529,-1.33042131345605,11.1397695374792,-6.16897924109192,94.4339673320622,10.771851890375,23.0037974587812,19.1339084443114
2.14685869920775,-27.4207604241534,11.9064564476545,-2.97460474864526,-1.36953489436307,11.1567487536996,-6.1701766875925,94.3020403903871,10.6466222041437,23.1145149609125,19.2124235743144
2.10668119332663,-27.4131681186855,12.0690801304598,-3.00193760310196,-1.40867880879487,11.1736377893651,-6.17374754724412,94.1661159717332,10.5085339002604,23.2225898439977,19.2854891509904
2.07608073918911,-27.4066954175577,12.2281495766536,-3.02886390813825,-1.44793984473439,11.1908480229938,-6.17925015821979,94.0270056559142,10.3580782843824,23.3275599822043,19.3528192524959
2.05524075809705,-27.4013509349216,12.3839023646727,-3.0554027414955,-1.48742971594357,11.2087543663523,-6.18618948330315,93.8855338642014,10.1957822801947,23.4288656476827,19.4140583463929
2.04424188968718,-27.3971446581951,12.5365508499326,-3.08156405377921,-1.52727963526443,11.227692869872,-6.19402751869048,93.7425323139664,10.0222034590654,23.5258639591954,19.4687940468989
2.04297513999891,-27.3940887282065,12.6862850928803,-3.10735096131949,-1.56763456139811,11.2479583685188,-6.20219447875154,93.5988339698361,9.83792573680143,23.6178455256033,19.5165698209837
2.05108590937244,-27.3921982577901,12.8332757797035,-3.13276189597996,-1.60864727815736,11.269802316127,-6.21010064157419,93.4552666523301,9.64355577476312,23.7040527482251,19.5568973853004
2.06795337034844,-27.3914921382573,12.9776769855094,-3.15779248417953,-1.65047247773936,11.2934309580703,-6.21714870637346,93.3126464707918,9.43972007795405,23.783699232688,19.5892686124797
2.0927037128728,-27.3919937832165,13.1196286537044,-3.18243704521322,-1.69326102283709,11.3190039909237,-6.22274647089779,93.1717712376276,9.22706273954912,23.8559897684572,19.6131668387164
2.12425037196969,-27.3937317632229,13.2592586915698,-3.20668962955868,-1.73715455770817,11.3466338565115,-6.22631959039116,93.0334139999767,9.00624374785747,23.9201403583542,19.6280775290825
2.16135111351401,-27.396740294579,13.3966846106633,-3.23054455989008,-1.78228062758282,11.3763858132676,-6.22732412994903,92.8983168010604,8.77793775272363,23.9753978117089,19.63349830819
2.20267141327799,-27.4010595626576,13.5320146750636,-3.25399648826262,-1.8287484469476,11.4082789084729,-6.22525857107057,92.767184764602,8.5428331756573,24.0210584448332,19.628948402204
