Finger Velocity,Scap_X,Scap_Y,Scap_Z,Shoulder horiz abd-adduction,Shoulder flexion-extension,Shoulder internal-external rotation,elbow flexion-extension,forearm pronation-supination,wrist flexion-extension,wrist radial-ulnar deviation
1.67024775114515,-23.0100880506135,-7.69535882589597,11.0644950905743,-22.5918311301453,-57.6080263141792,-36.3175318410031,67.2515588328182,-24.5881378768228,23.8833033490447,-38.367024683456
1.91235828198434,-22.9719858976515,-7.75611126788901,11.053645739561,-22.4711198465256,-57.3626142086247,-36.2589285458603,67.4426914678504,-24.2926566185544,25.4674621692539,-39.4940685862341
2.32936981209817,-22.9354129911644,-7.8120466769078,11.0439915187383,-22.3601332228745,-57.0807125977992,-36.1880957258963,67.678615740888,-23.9778459015278,27.0167462726678,-40.5260575506638
2.90113583390109,-22.9008693779135,-7.86161839050519,11.0353825613809,-22.2599912958903,-56.7598848431835,-36.1039979621943,67.9616705118483,-23.6423373420611,28.5124760632255,-41.4462851608106
3.60360766252318,-22.8688150181207,-7.90325850704632,11.027580346102,-22.1715166450137,-56.397859077859,-36.0055186973801,68.2938002623342,-23.2844151269096,29.9395281056081,-42.2428870920466
4.41810662074764,-22.8396546235531,-7.93540445793064,11.0202546282231,-22.0952004693159,-55.9925658726772,-35.8914545203329,68.6765253498409,-22.9019875408135,31.2860088179954,-42.9084627588294
5.33112339693937,-22.8137231726668,-7.95652633547594,11.0129823808427,-22.0311783729629,-55.5421749334678,-35.7605145491162,69.1109209128136,-22.4925721210127,32.5427527332225,-43.4394659183742
6.33225847247694,-22.7912726365283,-7.96515428698668,11.0052487785391,-21.9792166973584,-55.0451303696105,-35.6113259251089,69.5976045601013,-22.0532970623014,33.7027600980318,-43.8354844470431
7.41261797341512,-22.7724604187793,-7.95990527528556,10.9964502243242,-21.9387097420214,-54.5001840315387,-35.4424460697586,70.1367326710111,-21.5809210986953,34.7606597192737,-44.098504972397
8.56384046544393,-22.7573399505106,-7.93950851909227,10.9858993958488,-21.908687725371,-53.906426343249,-35.2523819216136,70.728004834734,-21.0718736193696,35.7122506372511,-44.2322288175441
9.77755370596513,-22.7458537916188,-7.90282896474725,10.972832261927,-21.8878348766796,-53.26331396323,-35.0396158966769,71.3706756771509,-20.5223162348094,36.554147953506,-44.2414788114241
11.0450898780555,-22.7378294818039,-7.84888820490633,10.9564169881221,-21.8745166437896,-52.5706935041066,-34.8026378344911,72.0635730739857,-19.928226371899,37.2835374209705,-44.1317152162726
12.3573543858063,-22.7329782663632,-7.77688234744782,10.935764606325,-21.8668146669021,-51.8288204419551,-34.5399817419816,72.8051215579626,-19.2855027147775,37.898030597702,-43.9086639204945
13.7047884005043,-22.7308967045816,-7.68619644162028,10.909941269097,-21.8625679249716,-51.0383722678483,-34.2502657647712,73.5933696260969,-18.5900913997554,38.3956060848505,-43.5780503041855
15.0773910189442,-22.7310710621888,-7.5764151770838,10.8779818519981,-21.8594183238834,-50.2004548956902,-33.9322335395706,74.4260196699422,-17.8381308106466,38.7746205902615,-43.1454265037839
16.4647808789666,-22.7328843015504,-7.44732967436256,10.8389046162716,-21.8548589727412,-49.3166013596771,-33.5847949428035,75.3004594002135,-17.026111619624,39.0338743299955,-42.6160769620105
17.8562846657024,-22.735625414939,-7.2989402784683,10.7917266087546,-21.8462834816479,-48.3887619255499,-33.2070642660234,76.2137939089205,-16.1510474178274,39.1727170539499,-41.9949862127237
19.2410441065664,-22.7385007924905,-7.13145535461757,10.73547945981,-21.831034793242,-47.4192849123926,-32.7983940166146,77.1628778729288,-15.2106499476168,39.1911827170062,-41.2868531859693
20.6081353816464,-22.7406472713697,-6.94528617136371,10.6692252429705,-21.8064523022228,-46.4108877852772,-32.3584028470731,78.1443477948071,-14.2035016860904,39.0901419402619,-40.4961375370719
21.9466962130007,-22.741146473881,-6.74103804282177,10.5920720786029,-21.7699162894325,-45.3666184408699,-31.8869965311768,79.154654525912,-13.1292174777321,38.8714616938357,-39.627125356073
23.2460566957668,-22.7390400124599,-6.51949798313125,10.5031891936149,-21.7188889708148,-44.2898070666999,-31.3843813929926,80.1900965484585,-11.9885862482276,38.538161088714,-38.6840039122481
24.4958704448047,-22.7333451242557,-6.28161919696475,10.4018211843849,-21.6509517151075,-43.1840094907529,-30.851070104427,81.2468545514093,-10.7836837413859,38.0945509557392,-37.6709376824435
25.686242991798,-22.7230703024581,-6.02850278703396,10.287301264095,-21.5638382017937,-42.0529435108658,-30.2878802400473,82.3210276921997,-9.51794787419276,37.5463433142854,-36.5921406852193
26.8078546579743,-22.7072305175842,-5.76137710345407,10.1590633024323,-21.4554634617422,-40.9004202469392,-29.6959263623956,83.408671597811,-8.19620979980169,36.9007153195681,-35.4519429875675
27.8520753915962,-22.6848616679536,-5.4815751910476,10.0166524823197,-21.3239488623389,-39.730273033255,-29.0766066767253,84.5058376664222,-6.8246760916205,36.1663113911763,-34.2548520179131
28.8110693221392,-22.6550339605196,-5.19051080861622,9.85973440687296,-21.167643169244,-38.54628670993,-28.4315854333352,85.6086126679279,-5.41086046259952,35.353167676098,-33.005611751707
29.6778870578285,-22.6168639963532,-4.88965349961832,9.68810249653018,-20.9851398465707,-37.3521303395149,-27.7627722750701,86.713157123167,-3.96346681917362,34.472545623736,-31.709264506368
30.4465440459009,-22.569525412885,-4.58050319345923,9.50168352910133,-20.775290757635,-36.151296334558,-27.0722996395299,87.8157405894896,-2.4922288103588,33.536667114488,-30.3712203684305
31.1120836268855,-22.512258008242,-4.26456482333673,9.3005411978342,-20.5372164102611,-34.9470487150014,-26.3624991439055,88.9127718919021,-1.00771391105199,32.5583529325377,-28.9973374480817
31.6706237436517,-22.444375333637,-3.9433234677319,9.08487758960777,-20.2703128614172,-33.7423827281605,-25.6358776230021,90.0008225621826,0.478897938552164,31.550579414415,-27.5940116494167
32.1193866092283,-22.3652707866192,-3.61822054977715,8.85503250741645,-19.9742553610944,-32.5399974053759,-24.8950931865588,91.0766422693564,1.95605029863238,30.525983722619,-26.1682675127902
32.4567109894647,-22.2744222759814,-3.29063164218926,8.61148057300693,-19.6489987821539,-31.3422818728424,-24.1429313522408,92.1371657755813,3.41205036573803,29.4963637938637,-24.7278330845598
32.682047111627,-22.1713955623947,-2.96184640893554,8.35482605128257,-19.2947748611105,-30.1513154562674,-23.3822810436792,93.1795118236189,4.83530428889923,28.4722305784391,-23.2811741621151
32.7959345617016,-22.0558464068292,-2.63305116346406,8.08579534964202,-18.9120862720087,-28.9688808819832,-22.6161100601447,94.2009752226699,6.214540790703,27.4624730884247,-21.8374600115339
32.799963875007,-21.9275216782379,-2.30531444240809,7.8052271736777,-18.5016975728863,-27.7964892246288,-21.8474395480637,95.1990141130619,7.5390185408279,26.4741873967377,-20.4064368584178
32.6967228501804,-21.7862595797017,-1.97957589442777,7.51406036984356,-18.0646231001194,-26.6354147080947,-21.0793170326838,96.1712348495583,8.79871481514526,25.5126984636024,-18.99819831055
32.4897289193762,-21.6319891471575,-1.65663867812281,7.21331955596827,-17.6021119418667,-25.4867370415744,-20.3147876830837,97.1153770908064,9.98449448604407,24.5817721673222,-17.6228614129134
32.1833491815435,-21.4647291599315,-1.3371654574656,6.90409873298353,-17.1156301996639,-24.3513886717192,-19.5568636644903,98.029301515652,11.0882591539577,23.6839816191383,-16.2901781572339
31.7827099452795,-21.2845865840612,-1.02167797830598,6.58754318565245,-16.6068408391719,-23.2302041654335,-18.8084916587297,98.910982147399,12.1030762469509,22.8211655227022,-15.0091284671388
31.2935978277901,-21.0917546536301,-0.710560103114585,6.26483010745981,-16.0775815200858,-22.1239689197802,-18.0725188845117,99.7585046298732,13.0232873441219,21.9949037624755,-13.7875467717924
30.7223546122514,-20.8865106834723,-0.404064073975827,5.93714850648007,-15.529840864628,-21.0334645345126,-17.3516581972629,100.570071060518,13.8445940919236,21.2069387977228,-12.6318286134047
30.0757681732384,-20.6692136952579,-0.102319672148952,5.6056790438969,-14.9657336633454,-19.9595084743603,-16.6484530663287,101.344011244227,14.56411920216,20.4594880511953,-11.5467486736867
29.3609618353941,-20.4403019222621,0.194654143250996,5.27157450996226,-14.3874755233971,-18.9029860706253,-15.9652433970408,102.078799570559,15.1804394555574,19.7554162895224,-10.5354021609056
28.5852845313682,-20.2002902318445,0.486935595795864,4.93594164705634,-13.7973574449276,-17.8648734282445,-15.30413327855,102.773076196204,15.6935876310157,19.0982613814587,-9.59926303890321
27.7562040693112,-19.9497674691065,0.774684965123728,4.59982498450902,-13.1977207781032,-16.8462503737466,-14.6669617893248,103.425670867958,16.1050209728476,18.4921268144591,-8.73833890755723
26.8812057069039,-19.6893936837702,1.05812850416226,4.26419325464442,-12.5909329756662,-15.8483031647454,-14.0552779691171,104.035627555631,16.4175551815159,17.9414675798229,-7.95139492116759
25.9676980582826,-19.4198971592215,1.33754193910425,3.9299288167249,-11.9793645132183,-14.8723172497159,-13.4703209580656,104.602228060478,16.6352647969041,17.450802500303,-7.23621738955698
25.0229281340629,-19.142071123462,1.61323409029217,3.59782033656453,-11.365367296916,-13.9196608826475,-12.9130061135062,105.125012890014,16.7633529495166,17.0243872298901,-6.58988995586555
24.0539070365389,-18.8567699943779,1.88553113578871,3.26855877936746,-10.7512548124944,-12.9917608265428,-12.3839176670784,105.60379791026,16.8079954473499,16.6658799286305,-6.0090596027214
23.0673475078312,-18.5649050051853,2.15476199951648,2.94273660569159,-10.1392841902333,-12.0900716991113,-11.8833082199852,106.038685574055,16.7761657364523,16.3780276756942,-5.4901747456681
22.0696141664736,-18.2674390771869,2.42124528061774,2.62084994228763,-9.53164026894062,-11.2160407152899,-11.4111051333687,106.430069856862,16.6754482124027,16.1623970941041,-5.02968252257614
21.0666868785189,-17.9653808566366,2.68527805604596,2.3033034326061,-8.930421642869,-10.3710696700859,-10.9669236702473,106.778634389015,16.5138475921662,16.0191678605939,-4.62417684981745
20.0641373060812,-17.6597778997691,2.94712679494634,1.99041743037001,-8.33762858058083,-9.55647599712559,-10.5500865721575,107.085343634022,16.2996016265624,15.9470027794234,-4.27049299725528
19.0671182748466,-17.3517090553048,3.20702053112756,1.68243715211707,-7.75515263196286,-8.77345465132973,-10.1596495861064,107.351427304533,16.0410034762053,15.9430027521453,-3.9657485253754
18.080365219321,-17.0422761407405,3.46514635383299,1.37954333971097,-7.18476770311168,-8.02304241136443,-9.79443228947846,107.578358513299,15.7462387741391,16.0027491666316,-3.70733451205745
17.1082086172736,-16.732595032702,3.72164719677196,1.08186391544161,-6.62812238157707,-7.30608598702255,-9.45305340215351,107.767826416133,15.4232409578084,16.1204300600204,-3.49286493638297
16.1545960279621,-16.4237862961166,3.97662182955983,0.789486062398827,-6.08673333028564,-6.62321505826159,-9.13396963856086,107.921704314393,15.0795670503021,16.2890402614477,-3.32009551491909
15.2231221130313,-16.1169654686795,4.23012688554988,0.50246814588709,-5.56197962812406,-5.97482108055281,-8.83551704578292,108.042014344024,14.7222948346246,16.5006402004103,-3.1868256992578
14.3170648481819,-15.813233104219,4.48218069911786,0.220850912871975,-5.05509800852772,-5.36104238179309,-8.55595370225637,108.130889980318,14.3579413636698,16.7466538770343,-3.09079846603252
13.439426021311,-15.51366466841,4.73276867682236,-0.0553325365298162,-4.56717902323414,-4.78175576618255,-8.29350261648082,108.190537622898,13.9924019970819,17.0181842422811,-3.02961168840325
12.5929740388486,-15.2193003773507,4.98184989059105,-0.326048426258768,-4.09916422320351,-4.23657454783983,-8.04639366394221,108.223198488389,13.6309086310632,17.3063242704583,-3.00065232647956
11.7802869898419,-14.9311350768223,5.22936455540258,-0.591255945443155,-3.65184448678855,-3.72485267919755,-7.81290343160757,108.231111932307,13.2780054478881,17.6024442822275,-3.00106081740788
11.0037937916904,-14.650108279758,5.47524203863793,-0.850903048288232,-3.22585962280817,-3.24569443130451,-7.59139190507302,108.216481159148,12.9375403181162,17.8984401623337,-3.02772854415996
10.265810989124,-14.377094509318,5.71940904598721,-1.10492447792083,-2.82169933170452,-2.79796893277814,-7.38033503701801,108.181442077895,12.6126699095184,18.1869322977091,-3.07732686822716
9.56857231546396,-14.1128941232608,5.96179764290966,-1.35324195033862,-2.43970554079015,-2.38032878003526,-7.17835237548892,108.128035840814,12.3058765722895,18.46141053486,-3.14636258388641
8.91424737985156,-13.8582248047523,6.20235280266639,-1.59576631831242,-2.08007607242915,-1.99123188776238,-6.98422909764815,108.058185389541,12.0189951642796,18.7163255179616,-3.23125221019305
8.30494480129769,-13.613713890784,6.4410392188959,-1.83240143729572,-1.74286957518465,-1.62896574939486,-6.79693197848608,107.973676145188,11.7532481320621,18.9471309074899,-3.32840642422043
7.74269389958145,-13.379891694497,6.67784717371689,-2.06304936963306,-1.42801163000268,-1.29167331516221,-6.61561902322737,107.876140832626,11.5092873437265,19.1502838788829,-3.43431606942328
7.22939807962325,-13.1571859946459,6.91279730106018,-2.28761648137302,-1.13530190062742,-0.977379759855779,-6.43964271216996,107.767048327072,11.287241341988,19.3232128562239,-3.54563229468793
6.76675313932722,-12.9459179168934,7.14594412591152,-2.50601992029174,-0.864422122101753,-0.684019495121274,-6.26854703842454,107.647696347004,11.0867668217379,19.4642617505406,-3.65923513988013
6.35612619623626,-12.7462994752136,7.37737829857303,-2.71819395036224,-0.614944654457193,-0.409462876135982,-6.10205872953861,107.519207777601,10.9071032223777,19.5726193011103,-3.77228691115704
5.99839726738471,-12.5584330282561,7.60722748496227,-2.92409568134146,-0.386341322056199,-0.151542152918059,-5.94007320483677,107.382530379308,10.7471293707004,19.6482407843571,-3.88226866512273
5.69377654813344,-12.3823128275808,7.83565592014586,-3.12370985276686,-0.177992322129677,0.0919236879028549,-5.78263593803958,107.23843960832,10.6054211338356,19.6917676840572,-3.98699981377259
5.44162468628082,-12.2178287254809,8.0628626811864,-3.31705246282912,0.0108049157570115,0.323105460770336,-5.62991999586606,107.087544248279,10.480309062204,19.7044491888687,-4.08464214498955
5.24031585476653,-12.0647720039664,8.28907878663714,-3.50417314197689,0.180826943277472,0.544141893708233,-5.48220061879406,106.93029452776,10.3699350348528,19.6880678002448,-4.17369040748557
5.08718639127334,-11.9228431949063,8.51456328155369,-3.68515625220582,0.332915531318752,0.757119441804134,-5.33982778980111,106.766992380831,10.2723069787891,19.6448700147943,-4.25295209373652
4.97859878770237,-11.7916616806193,8.73959851236461,-3.86012075007842,0.467968834185935,0.964053863995321,-5.20319778754982,106.597803504886,10.1853508328584,19.5775020510519,-4.32151925046342
4.91012280908221,-11.6707767882294,8.96448482880901,-4.02921889202994,0.586932350986805,1.16687357182749,-5.0727247347633,106.4227708882,10.1069590686298,19.4889499421915,-4.37873512177424
4.8768030705499,-11.559680015706,9.18953496715702,-4.19263389582659,0.690789537663097,1.36740472109635,-4.94881312754592,106.241829520527,10.0350352508976,19.3824829884085,-4.42415824869462
4.87346029541151,-11.4578179566271,9.41506836852177,-4.35057670928237,0.78055192085669,1.56735799865855,-4.83183226965978,106.054822055281,9.96753428556512,19.2615994848964,-4.45752638093831
4.89497095120654,-11.3646054466705,9.64140566740406,-4.50328206803553,0.85724859623148,1.76831705662344,-4.72209344588075,105.861515244867,9.90249812624258,19.1299737295127,-4.47872225908054
4.93648514916836,-11.2794384708587,9.86886355102591,-4.6510040312075,0.921915084268046,1.97172856107573,-4.61983055846102,105.661617003811,9.83808677407397,18.9914035114338,-4.48774300892567
4.99356571538424,-11.2017064532198,10.0977501462633,-4.79401116488111,0.975581661321514,2.17889384662625,-4.52518481948382,105.454793954995,9.7726044141837,18.8497575652097,-4.48467452386832
5.06225187045172,-11.130803656693,10.3283610462546,-4.93258151993728,1.0192614301519,2.39096219352041,-4.43819393303206,105.240689279573,9.70452051025771,18.7089228213629,-4.46967177093392
5.1390634700509,-11.0661394957371,10.5609760484703,-5.06699754467069,1.05393848174984,2.60892576324941,-4.35878601615435,105.018940628033,9.63248565958513,18.5727516457613,-4.4429454669195
5.2209659876756,-11.0071475940819,10.7958566414447,-5.19754108043319,1.08055651349546,2.8336162377747,-4.28677831205162,104.789197773969,9.55534202991562,18.4450095775482,-4.40475509124908
5.30531494063756,-10.9532934325066,11.0332442470992,-5.32448858839297,1.10000823360727,3.0657032062961,-4.22188056232176,104.551139623762,9.47212828199387,18.3293243186417,-4.35540777619321
5.38979426494149,-10.9040804536633,11.2733591968884,-5.44810673206261,1.1131258276405,3.30569433331174,-4.16370273860666,104.304490152779,9.38207903391506,18.2291368976632,-4.29526225787757
5.47235840110448,-10.8590545300928,11.5164003891622,-5.56864839607914,1.12067270367115,3.553937324526,-4.11176668905807,104.049032834272,9.2846191300447,18.1476560364258,-4.22473678744318
5.55118370471865,-10.8178067521389,11.762545538741,-5.6863491699114,1.12333667337579,3.81062368546703,-4.06552113220065,103.784623164727,9.17935320310757,18.0878167861165,-4.14431969720363
5.62463163895312,-10.7799745470129,12.0119518882315,-5.80142427931163,1.12172466822572,4.07579424291557,-4.02435933592024,103.511198964461,9.06605122068008,18.0522444667395,-4.05458119542832
5.69122403215072,-10.7452411955602,12.2647572110357,-5.91406591755396,1.11635903544711,4.34934636960908,-3.98763876052752,103.228788233857,8.9446308544656,18.043224845469,-3.95618492080978
5.7496293206369,-10.713333870509,12.5210809087093,-6.02444091674418,1.10767541051945,4.63104281514198,-3.95470192546437,102.937514462291,8.81513758767457,18.0626813487137,-3.84989781493014
5.79865794180481,-10.6840203803885,12.7810249972188,-6.13268870646821,1.09602212513586,4.92052200303548,-3.92489777382353,102.637599408671,8.67772348145506,18.1121599295041,-3.73659696455908
5.83726471564307,-10.6571048642637,13.0446747874414,-6.2389195290221,1.08166108334607,5.21730961540558,-3.89760284362371,102.329363489202,8.53262546376,18.1928219984325,-3.61727222921848
5.86455601222127,-10.6324227377353,13.3120990899533,-6.34321291039758,1.06477002322446,5.52083126245906,-3.87224159486102,102.013224007795,8.3801438984539,18.3054455657238,-3.49302370797309
5.87979964243578,-10.6098352346468,13.5833498078646,-6.44561641496512,1.04544607471282,5.83042602757918,-3.84830528136482,101.689691539156,8.22062205919467,18.450434441084,-3.36505341152879
5.88243565326241,-10.5892239203304,13.8584608223525,-6.54614472992752,1.02371052491672,6.14536068661063,-3.82536880125739,101.35936482131,8.05442699573998,18.6278350156847,-3.23465087773703
5.87208650339841,-10.5704855729933,14.1374461246804,-6.64477912540897,0.999514710068089,6.46484441408668,-3.80310501504115,101.022924534414,7.88193216186173,18.8373598364283,-3.10317286937348
5.84856540433574,-10.5535278400995,14.4202972068054,-6.74146731657035,0.972746969123982,6.78804379947757,-3.78129608727944,100.681126338837,7.70350208199146,19.0784169105834,-2.97201768146949
5.81188191239031,-10.5382660711975,14.7069797878843,-6.83612372575133,0.943240616965232,7.11409799553459,-3.75984148615519,100.334793520031,7.51947925655701,19.3501434679955,-2.84259493310209
5.76224413539324,-10.5246216986567,14.9974300196513,-6.92863012208507,0.910782919462832,7.44213380800601,-3.73876236483307,99.9848095442661,7.33017342602997,19.6514427539518,-2.71629202112942
5.7000571668889,-10.5125224743038,15.2915503701914,-7.01883661488347,0.875125063864105,7.77128051876571,-3.71820214653564,99.632110775089,7.13585322707817,19.9810223221747,-2.59443867121046
