Finger Velocity,Scap_X,Scap_Y,Scap_Z,Shoulder horiz abd-adduction,Shoulder flexion-extension,Shoulder internal-external rotation,elbow flexion-extension,forearm pronation-supination,wrist flexion-extension,wrist radial-ulnar deviation
0.939562470836272,-20.2459722490793,-16.7736012679072,7.56238917233238,-27.099256525899,-45.8452106237648,-24.7591120909323,76.8649427987683,-37.495705242919,18.1951906990211,-23.1484601610873
1.11629338226003,-20.2298851032992,-16.7747479060494,7.57317441681373,-27.1323053276067,-45.8415576960442,-24.7789010449315,76.8534232007898,-37.4446136651679,18.1061377227622,-23.054902975232
1.30509390750215,-20.2142697689742,-16.776367100448,7.58358311777921,-27.1686955187339,-45.8408211329654,-24.7981245377251,76.8437793624958,-37.374820760577,17.9817679545468,-22.9255454239823
1.50477295214886,-20.1993984927044,-16.7783827480232,7.59336626811319,-27.208135659585,-45.8432564820443,-24.8164052592133,76.8361053329524,-37.2845842559821,17.8176734573468,-22.756059326952
1.71402388439092,-20.1855525137884,-16.780696316689,7.60225638228187,-27.250240584087,-45.8490744130088,-24.8333610026025,76.8304530092872,-37.1722568151321,17.6095900837666,-22.5422887031444
1.93141107044956,-20.1730159360644,-16.7831859269625,7.60997025133067,-27.294528658498,-45.858431175838,-24.8486116117483,76.826826563649,-37.0363151382643,17.3534966519319,-22.2803519701216
2.15536902471176,-20.162068926395,-16.7857057830492,7.61621217680437,-27.3404204831898,-45.8714193906402,-24.8617859634875,76.8251775761975,-36.8753879186787,17.0457169912317,-21.96674779544
2.38420971259323,-20.1529803470657,-16.7880860202429,7.6206776518197,-27.3872391461175,-45.8880594080731,-24.8725287029131,76.8254010829244,-36.6882819914763,16.6830226443918,-21.598462433434
2.61613563846725,-20.1459999554882,-16.790133031816,7.6230574419825,-27.4342121069246,-45.9082914916097,-24.880506435253,76.8273327189633,-36.4740060359409,16.2627337449002,-21.1730760164359
2.84925734744981,-20.1413503285566,-16.7916303309874,7.62304200205086,-27.4804747548225,-45.931969081319,-24.8854130762732,76.8307470908611,-36.2317912382621,15.7828152490842,-20.6888648173977
3.08161445854078,-20.1392186900317,-16.7923399919731,7.62032614747848,-27.5250756450741,-45.9588533987648,-24.8869740759909,76.8353574456139,-35.9611083823771,15.2419652937264,-20.1448959788407
3.31119959056217,-20.1397488368316,-16.7920046993245,7.61461388490006,-27.5669833844168,-45.9886096393456,-24.8849492607596,76.8408166253858,-35.6616809117962,14.6396920327758,-19.5411106807105
3.53598466455776,-20.1430333735177,-16.7903504179735,7.60562329269933,-27.6050951091954,-46.0208049694815,-24.8791340877225,76.8467192137391,-35.3334935934212,13.9763749958256,-18.8783913085634
3.75394912712231,-20.1491064735828,-16.7870896786474,7.5930913323381,-27.6382464799864,-46.0549085021323,-24.8693591731055,76.8526047010172,-34.9767965145142,13.2533069280509,-18.1586080006018
3.96310966931342,-20.1579373920479,-16.7819254546336,7.57677846487482,-27.6652230981862,-46.0902933678653,-24.8554880420762,76.8579614305547,-34.5921042529711,12.4727122954084,-17.3846400909534
4.16155103163445,-20.1694249564213,-16.7745555849868,7.55647294737124,-27.6847732295261,-46.1262409337666,-24.8374131522753,76.8622310395774,-34.1801901709336,11.6377392080791,-16.5603684959434
4.34745749578416,-20.1833932605166,-16.7646776752297,7.53199469154721,-27.6956216955592,-46.1619471525407,-24.815050360051,76.8648130835574,-33.7420758826867,10.752422457925,-15.6906360603022
4.51914467297151,-20.1995887750098,-16.7519943805253,7.50319858121601,-27.696484767762,-46.1965309520916,-24.7883321168333,76.8650695327313,-33.2790160390185,9.8216167065386,-14.781174311802
4.67509120852741,-20.2176790670634,-16.7362189512017,7.46997716414588,-27.6860858726813,-46.2290445048062,-24.7571997900644,76.8623288539201,-32.7924786662769,8.85090056591638,-13.8384969232
4.81397003336324,-20.2372532867195,-16.7170808994807,7.43226265649735,-27.6631718937515,-46.2584851505015,-24.7215955876707,76.8558894362163,-32.284121418538,7.84645423518279,-12.8697623138947
4.93467880291852,-20.2578245291184,-16.6943316318195,7.39002822309259,-27.6265298376129,-46.2838086931502,-24.6814546196732,76.8450221808731,-31.7557642527808,6.81491527205965,-11.8826100311852
5.03636917019885,-20.2788341199203,-16.6677498854726,7.34328852500235,-27.5750036199192,-46.3039437528367,-24.636697651204,76.8289721514102,-31.2093592082721,5.76321879522997,-10.8849776044611
5.11847453574451,-20.2996577998735,-16.6371468120312,7.29209955723968,-27.5075107170432,-46.3178068319913,-24.5872250858355,76.8069592702855,-30.6469581381129,4.69842977595094,-9.8849062316696
5.18073589550864,-20.3196137085224,-16.6023705649944,7.2365578304338,-27.423058424662,-46.3243177484972,-24.5329126645145,76.7781781535075,-30.070679374768,3.6275758930453,-8.89034469213432
5.22322535570314,-20.3379719930386,-16.5633102716786,7.17679897585865,-27.3207594608452,-46.3224150965594,-24.4736092727983,76.7417972888466,-29.482674387418,2.55748950048397,-7.90896108848508
5.24636678531994,-20.3539658027109,-16.519899299025,7.11299586936706,-27.1998466494077,-46.3110714175807,-24.409137122391,76.6969578754615,-28.8850954915338,1.49466649991066,-6.94797133775797
5.25095291092904,-20.3668033781802,-16.472117753486,7.0453563761004,-27.0596864188113,-46.2893077960237,-24.339294423361,76.6427727393676,-28.2800655976951,0.445148393551647,-6.01399184465126
5.23815789860819,-20.3756809101238,-16.4199941826313,6.9741208158686,-26.8997908541728,-46.2562076368502,-24.2638605047559,76.5783258093662,-27.6696508480183,-0.58556825518794,-5.11292171457993
5.20954408666767,-20.3797958250687,-16.3636064682068,6.89955924142236,-26.719828049115,-46.2109294267334,-24.1826031869615,76.5026726753951,-27.0558368056394,-1.59259299092998,-4.24985749363688
5.16706100745802,-20.3783601545644,-16.3030819176081,6.82196861094465,-26.5196305247484,-46.152718325177,-24.0952880710306,76.414842751744,-26.4405086624467,-2.57167349055027,-3.42904105284218
5.11303416377983,-20.3706136558584,-16.2385965747561,6.74166992322272,-26.2992015148575,-46.0809164703314,-24.001689298181,76.3138435255447,-25.8254357370474,-3.5192005665624,-2.65383910699832
5.05014024704858,-20.3558363753995,-16.1703737840105,6.6590053694549,-26.05871895342,-45.9949719163866,-23.9016012529422,76.1986672798001,-25.2122603625092,-4.43218974952224,-1.92675114306083
4.98136472559659,-20.3333603782331,-16.0986820540147,6.57433554066681,-25.7985370366066,-45.894446143882,-23.7948506387796,76.0683005411246,-24.6024911142693,-5.30824402160489,-1.24944132934905
4.90993724749464,-20.3025804037401,-16.0238322826621,6.48803671623508,-25.5191852662599,-45.7790201014868,-23.6813083464759,75.9217363322328,-23.9975001997536,-6.1455027103815,-0.622789323183852
4.83924051322442,-20.2629632496251,-15.9461744161664,6.40049824749398,-25.2213649211034,-45.6484987526929,-23.5609005625958,75.7579891355731,-23.3985247191908,-6.94258149081127,-0.0469547645359908
4.77268974432929,-20.2140557311326,-15.8660936189002,6.31212003899682,-24.905942951183,-45.502814120689,-23.4336186240894,75.5761123200692,-22.8066714107521,-7.69850800726661,0.47854945743418
4.71358317305004,-20.1554911102812,-15.7840060241233,6.22331011729948,-24.5739433518984,-45.3420268516509,-23.2995272081381,75.3752176551513,-22.2229244148288,-8.41265698670925,0.954779493736115
4.66492936003049,-20.0869939380989,-15.7003541234277,6.13448226479119,-24.2265361433401,-45.1663263444131,-23.1587705444996,75.1544964300815,-21.6481555350779,-9.08468801447424,1.38328198487545
4.6292641023957,-20.0083832977044,-15.6156018434668,6.04605368709061,-23.8650241512328,-44.976029511645,-23.011576439375,74.9132416053098,-21.0831364379877,-9.7144884656178,1.76601750929494
4.60847658936839,-19.9195744738693,-15.5302293597993,5.95844267702167,-23.4908278489851,-44.7715782362979,-22.858257992622,74.6508703468748,-20.5285522148995,-10.3021234584965,2.10528811820047
4.60366868257242,-19.8205791039537,-15.4447277099394,5.8720662334302,-23.1054685706755,-44.5535355701005,-22.6992129678312,74.3669462431452,-19.9850157272099,-10.8477941378373,2.40367033900189
4.61507010510593,-19.7115038872342,-15.3595932839344,5.78733758788542,-22.7105504396538,-44.3225807019323,-22.5349208425711,74.0612004829501,-19.4530821671715,-11.3518051100512,2.66395440399641
4.64202479168424,-19.5925479468156,-15.2753222826859,5.70466358919526,-22.3077413731278,-44.0795027171849,-22.3659376326969,73.7335512832564,-18.933263296658,-11.8145414360117,2.88908994144932
4.68305122416215,-19.4639989517915,-15.1924052383933,5.62444189838381,-21.8987535169026,-43.8251931795504,-22.1928886525646,73.3841208844731,-18.4260408755429,-12.2364552116396,3.08213796388978
4.73596616609937,-19.3262281183553,-15.1113216888924,5.54705795750365,-21.4853234409495,-43.5606375893808,-22.0164594407209,73.0132494776944,-17.9318788560006,-12.6180614102702,3.24622869891854
4.79805123945873,-19.1796842195397,-15.0325350894989,5.4728817144687,-21.0691923953885,-43.2869058001601,-21.8373851468012,72.6215054921566,-17.4512339927053,-12.9599423152163,3.38452461852299
4.86623796631112,-19.0248867460487,-14.9564880324912,5.40226411062308,-20.6520868928373,-43.0051415017026,-21.656438734981,72.2096917533775,-16.984564595393,-13.2627595486087,3.50018792019008
4.93728917501095,-18.8624183746003,-14.8835978266622,5.33553336374702,-20.2356998466116,-42.7165509043318,-21.4744184022876,71.778847121071,-16.5323372240175,-13.527272426019,3.59635168608533
5.00796085006299,-18.6929169127114,-14.8142524701302,5.27299110384367,-19.8216724585958,-42.4223907821944,-21.2921346296468,71.3302433310982,-16.0950311933831,-13.7543611502996,3.67609398552611
5.07513577944848,-18.5170668975176,-14.7488070316443,5.21490844273748,-19.4115770252508,-42.123956052851,-21.1103972802579,70.8653768982415,-15.6731408126046,-13.945053203316,3.74241428045565
5.1359265901878,-18.3355910296117,-14.6875804410637,5.16152208103903,-19.0069008198339,-41.8225670796885,-20.9300031341844,70.3859560822421,-15.2671753405801,-14.1005511975975,3.79821163250957
5.1877499883049,-18.1492416197248,-14.630852680607,5.11303057310114,-18.6090312070744,-41.519556881193,-20.7517241958979,69.893883068239,-14.8776567024642,-14.222260411289,3.8462643796982
5.22837621987849,-17.958792214432,-14.5788623673746,5.06959087710477,-18.2192421436625,-41.2162584168001,-20.5762970317545,69.3912316540114,-14.5051150897746,-14.311814250672,3.8892111308524
5.25595843599297,-17.7650295458601,-14.5318047263818,5.03131531288174,-17.8386822098221,-40.913992093955,-20.4044132961231,68.8802208642694,-14.1500826527881,-14.3710959636275,3.92953309251221
5.26904637713223,-17.5687459216329,-14.4898299709012,4.99826903906349,-17.4683643046671,-40.6140536080246,-20.2367115056895,68.363185025158,-13.8130855755138,-14.4022550540071,3.96953787604247
5.26658808785435,-17.3707321399164,-14.4530421284791,4.97046814976958,-17.1091571239703,-40.3177021907391,-20.0737700403524,67.8425409299293,-13.4946348866394,-14.4077170044281,4.01134502573071
5.24792255715571,-17.171770985176,-14.421498369387,4.94787848340342,-16.7617785283386,-40.0261493090422,-19.9161013000857,67.3207528082698,-13.1952163924801,-14.3901850997902,4.05687356429759
5.21276542996964,-16.9726313350445,-14.3952089025955,4.93041523216902,-16.426790905701,-39.7405478295548,-19.7641469344061,66.8002958745331,-12.9152801167078,-14.3526333696406,4.10783187088302
5.16118932256416,-16.7740628863064,-14.3741374987734,4.91794343625814,-16.1045986305886,-39.4619816499261,-19.6182740776648,66.2836192709445,-12.6552296051013,-14.2982899444448,4.16571018299272
5.09359981060998,-16.5767914863922,-14.358202681039,4.91027943416369,-15.7954477144758,-39.1914558020588,-19.4787725538418,65.7731092384528,-12.4154114155774,-14.230610441383,4.23177594603161
5.01070782602626,-16.3815150359978,-14.3472795961548,4.90719331396347,-15.4994277182309,-38.9298870548356,-19.345853042237,65.2710533397335,-12.1961050741093,-14.1532413474226,4.30707212957547
4.91349897053693,-16.1888999113797,-14.3412025461905,4.90841236890637,-15.2164759577308,-38.6780950818002,-19.2196462112479,64.7796065264705,-11.997513740074,-14.0699737483369,4.39241850328858
4.80320010407075,-15.9995778447822,-14.3397681281453,4.91362551043735,-14.9463839817668,-38.4367943035342,-19.1002028323036,64.3007597876368,-11.8197557917708,-13.9846881624158,4.48841573321818
4.68124347398465,-15.814143199295,-14.3427389019656,4.92248854193966,-14.68880624474,-38.2065865540862,-18.987494885396,63.8363120391763,-11.6628575121554,-13.9012916681629,4.5954520373681
4.54922860293562,-15.6331505789725,-14.3498474898464,4.9346301532956,-14.4432708407657,-37.987954747216,-18.8814176641537,63.3878458211011,-11.5267470182622,-13.82364894391,4.71371204647595
4.40888214281919,-15.4571127239045,-14.3608010018897,4.94965846229637,-14.2091921133712,-37.7812577288338,-18.7817928805262,62.9567072587627,-11.4112495273721,-13.7555092285754,4.84318746594474
4.26201593036437,-15.2864986501713,-14.3752856831361,4.96716790436469,-13.9858849068927,-37.5867264978945,-18.6883727545028,62.5439906246115,-11.3160839894113,-13.7004315252283,4.98368912952657
4.11048355382096,-15.1217320029357,-14.3929716833032,4.98674625685845,-13.7725801826188,-37.4044619606553,-18.6008450522445,62.1505277096994,-11.2408610477422,-13.6617105694161,5.13486006835803
3.95613587141791,-14.963189594988,-14.4135178620451,5.00798157883784,-13.5684416864652,-37.2344343546758,-18.5188390087936,61.7768820856919,-11.1850822306255,-13.6423061571687,5.29618928638523
3.80077612408216,-14.8112001036467,-14.4365765565397,5.0304688531566,-13.3725833279545,-37.076484442688,-18.4419320446981,61.4233482138684,-11.1481402308094,-13.6447783736547,5.4670260337204
3.64611556639849,-14.6660429010652,-14.4617982517363,5.05381613619123,-13.1840869133364,-36.9303265356125,-18.3696571658502,61.0899552430913,-11.1293201052375,-13.671231091751,5.64659449578136
3.49373089761885,-14.5279470025225,-14.4888361045317,5.0776500503386,-13.0020198683658,-36.7955533602447,-18.3015109248941,60.7764752386182,-11.1278012256764,-13.7232658342607,5.83400895084022
3.34502518215244,-14.3970901350387,-14.5173502798293,5.10162049284398,-12.8254525903498,-36.6716427423257,-18.2369618188979,60.4824355010938,-11.142659841107,-13.8019477309576,6.0282895683505
3.2011943460982,-14.2735979497207,-14.5470120580496,5.12540447868368,-12.653475088923,-36.5579660326971,-18.1754590008142,60.2071345730322,-11.172872176451,-13.90778487464,6.22837910348859
3.06320162390421,-14.1575434198988,-14.5775076711392,5.14870908189843,-12.4852126129439,-36.4537981661563,-18.1164411927648,59.9496614919176,-11.2173180814356,-14.0407219235678,6.43316077576996
2.93176237690929,-14.0489464810026,-14.6085418193064,5.17127348429857,-12.319840013184,-36.3583292123591,-18.0593457051611,59.7089178361758,-11.2747853425045,-14.2001483465368,6.6414775936325
2.80734137875075,-13.9477739779008,-14.6398408155061,5.19287017736492,-12.156594647071,-36.2706772564464,-18.0036174785365,59.4836421189509,-11.3439748637839,-14.3849212657069,6.85215329563841
2.69016386820536,-13.853939992237,-14.6711553018459,5.21330538889582,-11.9947876804344,-36.1899024299375,-17.9487180649333,59.2724361056731,-11.4235069970829,-14.5934023843065,7.06401491664772
2.58024040896382,-13.7673066262276,-14.7022624847831,5.23241882041498,-11.833813674926,-36.1150218925857,-17.8941344499146,59.073792655469,-11.5119293449703,-14.8235079567669,7.27591675822084
2.47740399982192,-13.6876853198196,-14.732967845265,5.25008278650598,-11.6731583710556,-36.0450255394929,-17.839387590816,58.8861247097128,-11.6077263661571,-15.0727701858297,7.48676526947542
2.38135620512177,-13.6148387745511,-14.7631062934211,5.26620084546235,-11.5124045930406,-35.9788921778637,-17.7840405201489,58.7077950738786,-11.7093310717236,-15.3384078823316,7.69554406704407
2.29171764992221,-13.5484835497055,-14.7925427513269,5.28070600496766,-11.3512362174432,-35.9156058903477,-17.7277058388075,58.5371466598725,-11.8151390111641,-15.6174037722174,7.90133808434927
2.2080773501732,-13.4882933843135,-14.8211721592977,5.2935585803777,-11.1894401637457,-35.8541722808276,-17.67005240176,58.3725328699753,-11.9235246128247,-15.9065855312346,8.1033556767742
2.13003521898096,-13.4339032824257,-14.8489189105698,5.30474377877391,-11.0269063840766,-35.7936342849818,-17.6108109814735,58.2123478063664,-12.0328597748454,-16.2027074964804,8.30094744398148
2.05723275135191,-13.3849143791384,-14.8757357265484,5.31426907953906,-10.8636258566087,-35.7330872229988,-17.5497786889684,58.0550559842149,-12.1415344132424,-16.502530062116,8.49362057777441
1.98936826009957,-13.3408995809715,-14.9016019906231,5.322161481065,-10.6996866274419,-35.6716927770839,-17.486821947951,57.8992212201707,-12.2479784774941,-16.8028940229839,8.68104770860673
1.92619496644297,-13.3014099459057,-14.926521563546,5.32846468235167,-10.5352679997949,-35.6086915929053,-17.4218778577607,57.7435343716001,-12.3506847628123,-17.1007875664047,8.86306949661055
1.86750257901168,-13.2659817359684,-14.9505201086139,5.33323626627571,-10.3706330325279,-35.5434142312403,-17.354953841638,57.586839618602,-12.4482317158522,-17.39340417365,9.03969056651375
1.81308556122726,-13.2341440404587,-14.9736419619545,5.33654494669253,-10.206119574025,-35.4752902312968,-17.2861255478004,57.4281590038032,-12.5393053809307,-17.6781903046007,9.21106878087952
1.76270388623637,-13.2054268333091,-14.9959465935439,5.33846793375467,-10.0421301139895,-35.4038550872356,-17.2155330411566,57.2667149616078,-12.6227196806552,-17.9528823341842,9.3774982412385
1.71604441853472,-13.1793692963232,-15.0175047188297,5.33908846143234,-9.87912077905923,-35.328754982837,-17.1433753870286,57.1019505716006,-12.6974343527636,-18.2155327351005,9.53938676281734
1.67269276469692,-13.1555282134748,-15.0383941379572,5.33849350870925,-9.71758982480743,-35.2497491778738,-17.0699037849068,56.9335472643771,-12.7625700382622,-18.4645259225976,9.69722885209474
1.63212614790534,-13.1334862221999,-15.058695396988,5.33677173135374,-9.55806598464736,-35.1667099959138,-16.9954134624613,56.76143970299,-12.8174201952605,-18.698584476521,9.85157540849704
1.59373744845569,-13.1128596970264,-15.0784873805997,5.33401160558602,-9.40109702416654,-35.0796204261951,-16.9202345885471,56.5858275673709,-12.8614596690782,-18.9167666377092,10.0030014760141
1.55689927526866,-13.0933060398634,-15.0978429571545,5.33029977101137,-9.24723881646283,-34.9885694186499,-16.8447225076639,56.4071839846497,-12.8943498690194,-19.1184560645278,10.1520734050398
1.52107542010157,-13.0745301605568,-15.1168248035513,5.32571955006073,-9.09704520199634,-34.8937450178672,-16.7692476359029,56.226260375721,-12.9159405843538,-19.3033448625444,10.2993167612846
1.48598591840002,-13.0562899512569,-15.1354815369968,5.32034961453563,-8.9510588323722,-34.7954255455855,-16.6941853867874,56.0440875287372,-12.9262685212105,-19.471410888822,10.4451862369926
1.45183101013844,-13.0384005878229,-15.1538442722865,5.31426276498697,-8.80980313043765,-34.6939690977244,-16.6199065073743,55.8619727620098,-12.9255526669934,-19.622890298019,10.5900386802209
1.41957625755226,-13.020737528645,-15.1719237072065,5.30752478495793,-8.67377543527323,-34.5898016653695,-16.546768190772,55.6814930964935,-12.9141866014029,-19.7582462616618,10.734110172923
1.39128966844491,-13.0032381226917,-15.1897078182197,5.30019333071286,-8.54344134266027,-34.4834042149502,-16.4751062848336,55.5044844154401,-12.8927278836109,-19.878134775219,10.8774978769451
1.37049014271849,-12.9859017810718,-15.2071602267025,5.29231681959299,-8.4192302013691,-34.3752990700332,-16.405228841934,55.3330266443169,-12.861884658569,-19.9833684703584,11.0201471419581
1.36240135687346,-12.968788707741,-15.2242192741349,5.28393328758792,-8.30153168640603,-34.2660359282626,-16.3374111640679,55.1694250408473,-12.822499643125,-20.0748793511011,11.1618441364559
