Finger Velocity,Scap_X,Scap_Y,Scap_Z,Shoulder horiz abd-adduction,Shoulder flexion-extension,Shoulder internal-external rotation,elbow flexion-extension,forearm pronation-supination,wrist flexion-extension,wrist radial-ulnar deviation
1.78586470378811,-15.7492083969602,-13.9287366796858,6.48199009307457,-27.7902762408762,-46.9115417586675,-26.838388943145,70.8356870061921,-35.0079380020376,15.4210126203452,-24.4131679310108
2.33835705976602,-15.6872150827057,-13.8915229921495,6.39259160426184,-27.8848715632382,-46.9309178874466,-26.8945736570366,70.9605602816682,-34.4849637086534,15.1175896773311,-23.9837643525935
2.99533124381447,-15.6192446157516,-13.8472011593834,6.29750981812422,-27.9943404107024,-46.9380946634963,-26.9537494342968,71.1394784164523,-33.9066086722086,14.7930744016444,-23.5056021162084
3.740997098633,-15.5454824911906,-13.7946948890891,6.19686778456515,-28.1193397184339,-46.9302723385047,-27.0151513147792,71.3769752373752,-33.2701545494382,14.4524049819199,-22.9850071832263
4.5655218414099,-15.4661874140548,-13.732871845942,6.09080746618263,-28.2604082873318,-46.9045029831132,-27.0778969303729,71.6771398958913,-32.5727926206301,14.1006514956678,-22.4292682870731
5.46167842993565,-15.3816854367139,-13.6605572494467,5.97948337753351,-28.4179473028942,-46.857722848147,-27.1409856911529,72.0435497727096,-31.8116004524561,13.7428370697645,-21.8464161654381
6.42320984578607,-15.2923618135597,-13.5765499879776,5.86305573066459,-28.5921997329767,-46.7867888244526,-27.2032972176625,72.4792135357492,-30.9835315033653,13.3837797636358,-21.2449898454089
7.44404717797812,-15.1986507802799,-13.4796410769042,5.74168320223572,-28.7832287416343,-46.6885184150107,-27.2635888045431,72.986523755859,-30.0854232150747,13.0279584560552,-20.6337943842645
8.51793537026453,-15.1010235818433,-13.3686341896866,5.61551544051284,-28.9908954819391,-46.5597325615629,-27.320491944134,73.5672178464342,-29.1140287477622,12.679402287915,-20.0216513729382
9.63826155489376,-14.9999751797208,-13.2423678904415,5.48468544281354,-29.2148369067428,-46.3973006273228,-27.3725082490813,74.2223457249077,-28.0660767380389,12.3416009184579,-19.4171415271485
10.797990763457,-14.8960101565931,-13.0997390975202,5.34930195705147,-29.4544445331517,-46.1981868202229,-27.4180054656618,74.9522425414812,-26.9383623074218,12.0174324445952,-18.8283383536482
11.9896627241466,-14.78962839634,-12.9397272164623,5.20944209355923,-29.7088453759976,-45.9594973330758,-27.455214626735,75.756505071593,-25.7278710398473,11.7091072557272,-18.2625332942448
13.2054258290175,-14.6813111396532,-12.7614183035119,5.06514437172707,-29.9768864886465,-45.6785274648126,-27.4822297095864,76.6339708688102,-24.4319357762112,11.4181288256872,-17.7259556472469
14.4370950024703,-14.5715079969315,-12.5640285616101,4.91640246500721,-30.2571246805402,-45.3528079650569,-27.4970113897981,77.582699951601,-23.0484238212089,11.1452756221929,-17.2234944247336
15.6762254828608,-14.4606254421833,-12.3469264341037,4.76315994212524,-30.5478229902099,-44.9801498127803,-27.4973965662301,78.5999595795126,-21.5759495061148,10.8906109280918,-16.7584335060577
16.9141972562023,-14.3490172205044,-12.1096525544537,4.60530632664527,-30.8469553602958,-44.5586865995442,-27.4811152299056,79.6822134987985,-20.0141040224839,10.653528432321,-16.3322154199265
18.1423063494037,-14.2369769846295,-11.8519368385181,4.44267480572272,-31.1522206834161,-44.0869136398914,-27.4458159374514,80.8251178472839,-18.3636911418261,10.4328401786588,-15.9442524032768
19.3518600213499,-14.1247333407739,-11.5737120702665,4.27504190614747,-31.4610669775898,-43.563722878711,-27.389100632437,82.0235266419496,-16.6269541091095,10.2269094402947,-15.5918057848181
20.5342733926762,-14.0124473396192,-11.2751234301413,4.10212941507616,-31.770725931013,-42.9884326144655,-27.3085688669965,83.2715103535536,-14.8077760721142,10.0338244389553,-15.2699560411036
21.6811653885647,-13.9002123071824,-10.9565335451669,3.92360874679086,-32.0782574586685,-42.3608110201473,-27.2018706659672,84.5623914042979,-12.9118345023489,9.85160034692916,-14.9716857815136
22.784452117349,-13.7880557871769,-10.618522796479,3.73910784240219,-32.3806032800295,-41.6810924387469,-27.0667664236617,85.8888003994577,-10.9466899141861,9.67838821271864,-14.6880958111952
23.8364360161209,-13.6759432741283,-10.2618847936153,3.54822054539393,-32.6746479168133,-40.9499854781118,-26.9011914266472,87.2427564191355,-8.92179149524186,9.51266248159869,-14.4087691808472
24.8298892868113,-13.5637833621182,-9.88761710242044,3.35051824244068,-32.9572849872536,-40.1686720522676,-26.7033219579234,88.6157736742082,-6.84838745005867,9.35335617635737,-14.1222882099064
25.7581303345788,-13.4514339185634,-9.49690748207146,3.14556341817128,-33.2254862913374,-39.3387967285023,-26.4716395444983,89.9989952457199,-4.73933583658715,9.19991694401258,-13.8168933626481
26.6150921103238,-13.3387089117706,-9.09111603769843,2.93292465897842,-33.4763709694981,-38.4624460483375,-26.2049898103418,91.3833525357541,-2.60882164893672,9.05226935236332,-13.4812501544661
27.3953814524262,-13.2253855671452,-8.67175382169551,2.71219255928259,-33.70727198217,-37.5421178910258,-25.9026325987943,92.7597466167074,-0.471996388924412,8.91068811297457,-13.1052631023364
28.0943287187754,-13.1112115894384,-8.24045851246114,2.48299593439965,-33.915797288646,-36.5806814216168,-25.5642805113364,94.119245130042,1.65543453942696,8.77560942302182,-12.6808499181427
28.708027196962,-12.9959122551762,-7.79896785961232,2.24501772936625,-34.0998833788996,-35.5813286752517,-25.1901237296417,95.4532860857203,3.75764545220531,8.64742678380866,-12.2025737768718
29.2333619755581,-12.8791972384329,-7.34909161112641,1.99801003413781,-34.2578392041151,-34.5475193234042,-24.7808398798907,96.7538782091778,5.81911257695941,8.52632604824,-11.6680361565455
29.6680281498752,-12.7607670767529,-6.8926826371956,1.74180766723694,-34.3883790307185,-33.4829205910097,-24.3375886778353,98.0137866936275,7.82499587600924,8.41220698754515,-11.07796270737
30.0105384185504,-12.6403192123373,-6.43160794720295,1.47633986114577,-34.4906432773248,-32.3913445978504,-23.8619920652101,99.2266935467282,9.76145901382235,8.30471572233941,-10.4359663662074
30.2602203000009,-12.5175535621956,-5.96772026891942,1.20163966448176,-34.5642069539953,-31.2766855477666,-23.3561014204874,100.387323207538,11.6159156492787,8.2033807103605,-9.74803242680071
30.4172033576382,-12.3921775854288,-5.50283082708264,0.91785076550383,-34.6090758818533,-30.1428591660186,-22.8223541219405,101.491526601654,13.3772000705999,8.10781535351001,-9.02182139992321
30.4823969675285,-12.2639108295966,-5.03868391956297,0.625231538627152,-34.6256714028466,-28.9937465884444,-22.2635222041944,102.536319989,15.0356683967249,8.01793257495376,-8.26591199446882
30.457459290001,-12.1324889541494,-4.57693383656888,0.324156218123435,-34.6148047649116,-27.833144555407,-21.6826560554646,103.519878428198,16.5832420175173,7.93411564587756,-7.48910263407586
30.3447582160369,-11.9976672499497,-4.11912459595364,0.0151132059545739,-34.577642753964,-26.6647232961215,-21.0830260548382,104.441486997818,18.0134073185954,7.85730323663095,-6.69986078091185
30.1473251489537,-11.8592236997555,-3.66667287484795,-0.301299381850116,-34.5156664122879,-25.4919929544385,-20.4680647748509,105.301455695251,19.32118540604,7.78896854414001,-5.90596728238569
29.8688025511709,-11.7169616509713,-3.22085440877122,-0.624380736943304,-34.4306248187309,-24.318278858647,-19.8413119235778,106.101005911241,20.5030833118714,7.73099472668351,-5.11436124714791
29.5133862342937,-11.5707121933325,-2.78279401038273,-0.953336675117148,-34.3244859126809,-23.1467054231005,-19.2063636406585,106.842137432402,21.5570349620917,7.68546612864726,-4.33115889179267
29.0857633983326,-11.4203363463572,-2.35345923755224,-1.28729090347236,-34.1993862352313,-21.980188026932,-18.5668271665879,107.527485080073,22.4823368620899,7.65440462524877,-3.56180096387676
28.5910474328683,-11.2657271627398,-1.9336576216937,-1.62529783822395,-34.057581256032,-20.8214318732432,-17.9262813340116,108.160173488867,23.2795805916822,7.63948343226901,-2.81127666507375
28.0347104799826,-11.1068118443524,-1.52403726168587,-1.96635653971144,-33.9013976779823,-19.672936606567,-17.2882428228951,108.743677365069,23.9505821191105,7.64174896500981,-2.08437401903265
27.4225147267118,-10.9435539478046,-1.12509050613573,-2.30942532579644,-33.7331887977665,-18.5370053559104,-16.6561377045818,109.281693064108,24.4983067206344,7.66137703980238,-1.38591358362428
26.7604433448617,-10.7759557278819,-0.737160392779417,-2.65343664463373,-33.5552936861513,-17.4157568584372,-16.0332774932651,109.778025687082,24.9267878474666,7.69748454452526,-0.720931400411595
26.0546319297794,-10.6040606317558,-0.360449485989874,-2.99731182369451,-33.3700006720144,-16.3111393803637,-15.4228387395006,110.23649427438,25.2410384404803,7.74801249797803,-0.0947864365104979
25.3113012089832,-10.4279559173882,0.00496925695343012,-3.33997535547083,-33.179515390394,-15.2249452648748,-14.8278451385663,110.660856176302,25.4469537480953,7.80969132164379,0.486823094565624
24.5366916986863,-10.2477753292571,0.359139963096878,-3.68036842818123,-32.9859334889041,-14.1588250878602,-14.2511511766381,111.054750368945,25.5512054542755,7.87809389671597,1.01794116026856
23.737000883976,-10.0637017277345,0.702210040564944,-4.01746146144116,-32.7912179591616,-13.1143005829407,-13.6954264857637,111.421658390276,25.5611277081198,7.94777621530648,1.49253055929085
22.9183233900938,-9.87596953960985,1.03441547854736,-4.35026546031325,-32.5971809468404,-12.0927756971098,-13.1631403034327,111.764880713902,25.484596358358,8.01249901529126,1.90473285884844
22.0865945020375,-9.68486687837498,1.35606564157923,-4.67784205257806,-32.4054697887167,-11.0955453405664,-12.6565457011872,112.087525773927,25.3299032876895,8.06551697945706,2.24919042766289
21.2475372826085,-9.4907371727886,1.66752794779092,-4.99931211895896,-32.2175569392123,-10.1238015817125,-12.1776635222787,112.392508518831,25.1056281990288,8.09991556672744,2.5214012086544
20.4066134411616,-9.29398013961743,1.96921280498462,-5.31386296058167,-32.0347333961462,-9.17863720108261,-11.728266223244,112.682555306168,24.8205105192681,8.10897029446888,2.71807105541347
19.5689780239348,-9.09505194225363,2.26155914737988,-5.62075397212723,-31.8581052177976,-8.26104665569643,-11.3098620298378,112.960212129308,24.4833242425799,8.08650031819749,2.83742623914316
18.7394379402278,-8.89446439274817,2.54502087161113,-5.91932080872244,-31.688592733514,-7.37192462287287,-10.9236799780031,113.227853546564,24.1027585228774,8.02718820599235,2.87945100425125
17.9224143158801,-8.69278308008959,2.82005441681472,-6.20897805725938,-31.5269320801918,-6.5120623949755,-10.5706565074435,113.48769020416,23.6873066429339,7.92684109000358,2.84602196882116
17.1219086853865,-8.49062433966087,3.08710767689055,-6.48922045176314,-31.3736787419992,-5.68214248608929,-10.2514243154599,113.741773446613,23.2451656480831,7.78257447972147,2.7409219851177
16.3414731040916,-8.28865101630096,3.34661038169068,-6.75962270610399,-31.2292128237443,-4.88273188898938,-9.96630417380757,113.991996130189,22.7841484605532,7.59290802484306,2.56972925498283
15.5841843862554,-8.08756701782928,3.59896604411216,-7.0198380746098,-31.0937458371153,-4.11427448726361,-9.71530036526761,114.240089340672,22.3116097252269,7.35777124588957,2.33959103395573
14.8526228513022,-7.88811070768124,3.84454554053634,-7.26959579186947,-30.9673288122932,-3.37708318187482,-9.49810030849376,114.487615221585,21.8343860288706,7.07842551891468,2.05890311798682
14.1488561779439,-7.69104723759171,4.08368236389758,-7.50869758210232,-30.8498615664092,-2.67133232496014,-9.31407881555093,114.735956519013,21.3587505371019,6.75731539737188,1.73692481821893
13.4744292008854,-7.49715996185764,4.31666955305957,-7.73701345377797,-30.7411029795171,-1.99705105308037,-9.16230728061656,114.986303740244,20.8903815597571,6.39786699110844,1.38336330046858
12.8303607007895,-7.30724109637378,4.54375825823944,-7.95447699620185,-30.6406821607309,-1.35411807102762,-9.0415679425337,115.239641014639,20.4343441297461,6.00425330945338,1.0079608331259
12.2171483863876,-7.12208179164116,4.7651578574633,-8.16108037216584,-30.5481104295182,-0.742258362229747,-8.95037320240919,115.496731849582,19.9950833859835,5.5811463197405,0.620114268963358
11.6347832925609,-6.94246178748186,4.98103750249246,-8.35686916514347,-30.462794077173,-0.161042205782268,-8.88698981169699,115.758106002878,19.57642838385,5.13347339984258,0.228549155551444
11.0827746676967,-6.76913881370095,5.1915289468005,-8.54193720323764,-30.3840479013532,0.390113228254333,-8.84946757912773,116.024048652277,19.1816048923323,4.666192489805,-0.158937368377515
10.560186062505,-6.60283789697991,5.39673048724751,-8.71642145344412,-30.3111095209679,0.911939552912661,-8.83567207889018,116.294592940106,18.8132557419402,4.18409624765689,-0.535658936258542
10.0656827573773,-6.44424073061221,5.59671182823733,-8.8804970614738,-30.2431544829023,1.40531008444348,-8.84332067995495,116.569516816379,18.4734673296173,3.69165150553823,-0.896148730266218
9.59758991535575,-6.29397526219022,5.79151965232106,-9.03437260190729,-30.179312167787,1.8712301181819,-8.87002106418385,116.848344908211,18.1638009443342,3.19287677681757,-1.23620118047603
9.15396000621765,-6.15260565734361,5.98118366036275,-9.17828559586657,-30.1186824872685,2.31082479750497,-8.91331127137584,117.130355915852,17.8853276429343,2.69125775825437,-1.55285647292941
8.73264723096694,-6.02062280552223,6.16572283304567,-9.31249834539451,-30.0603533360504,2.72532492661059,-8.97070021604345,117.414595784572,17.6386654851858,2.18969878172554,-1.84433928630779
8.33138601331232,-5.89843554347241,6.34515166619849,-9.4372941258393,-30.0034187152479,3.11605116721688,-9.03970757255466,117.699896637417,17.4240180391545,1.69050692289484,-2.10996323562193
7.94787022621506,-5.7863627783834,6.51948614691127,-9.55297377231507,-29.9469973787754,3.48439711306244,-9.11790192642804,117.984901191196,17.241213200476,1.19540480282138,-2.35001155102802
7.57982975451577,-5.68462669227905,6.6887492665077,-9.65985269431559,-29.8902517737919,3.83181174660665,-9.20293614181366,118.268092135144,17.0897415348086,0.705567826418806,-2.56560301203741
7.22510126771949,-5.59334720189067,6.85297590682609,-9.75825835025078,-29.8324069555414,4.15978175378116,-9.29257899954191,118.547825743399,16.9687935458723,0.22168151978817,-2.75855045749919
6.88169064137315,-5.51253783507581,7.0122169805512,-9.84852820579568,-29.7727690668702,4.46981411965392,-9.38474231538015,118.822368825214,16.8772954752718,-0.255985354289473,-2.93121755139566
6.54782523031563,-5.4421031664463,7.16654274788533,-9.9310081834695,-29.7107428962261,4.76341936538971,-9.47750294787069,119.08993798996,16.8139434329569,-0.727496167138504,-3.08637804893521
6.22199505391969,-5.38183793160115,7.31604526797544,-10.006051587414,-29.6458479749133,5.04209572248511,-9.56911933508529,119.348740115715,16.7772358197551,-1.19315447763052,-3.22708063997525
5.9029828006653,-5.33142791184305,7.46083997446411,-10.0740184627933,-29.5777326489255,5.30731447449454,-9.65804244019838,119.597012859772,16.7655041203487,-1.65340888139299,-3.35652155656967
5.58988332034872,-5.29045264980882,7.60106639164809,-10.1352753291539,-29.506185563633,5.56050662853072,-9.74292122005935,119.833064035425,16.7769422029448,-2.10875863728903,-3.47792649602397
5.2821139034515,-5.2583900208693,7.73688803293693,-10.1901952121005,-29.4311440313258,5.80305101105122,-9.822602949236,120.055308699606,16.809634255135,-2.55966383004385,-3.5944429901778
4.97941713673526,-5.23462264571418,7.86849154815649,-10.2391578853442,-29.3526988120142,6.03626381990772,-9.89612892688621,120.262302849793,16.8615814233257,-3.0064634842977,-3.70904409275711
4.68185848259957,-5.21844608734508,7.99608521000475,-10.2825502248499,-29.2710949258312,6.26138961248448,-9.96272625494375,120.452772718344,16.9307271270566,-3.44930456741816,-3.82444409831287
4.38982097627929,-5.20907873177545,8.11989684932539,-10.3207665694159,-29.1867282301768,6.47959367241616,-10.0217964925004,120.625638780693,17.014980914222,-3.88808420290015,-3.9430268885026
4.10399957889548,-5.20567320677671,8.24017136023323,-10.354208978133,-29.1001376363617,6.69195567810339,-10.072902054886,120.780033762294,17.1122406308475,-4.3224066708158,-4.06678737503108
3.82539774001794,-5.20732914864933,8.35716789853402,-10.3832872754117,-29.0119930061837,6.89946459471844,-10.1157512315763,120.915314139499,17.2204126174172,-4.75155593004939,-4.19728634324812
3.55532851110438,-5.21310708596455,8.47115689244615,-10.408418780326,-28.9230789504612,7.10301472274425,-10.150182643475,121.031064882135,17.3374296238,-5.17448353678226,-4.33561879229405
3.29542187375691,-5.22204317359901,8.58241697649185,-10.4300276304195,-28.8342749360612,7.30340285444113,-10.1761498541251,121.127097471606,17.4612661613307,-5.5898110712668,-4.48239563647529
3.047638330776,-5.23316448060188,8.69123194935577,-10.4485436306988,-28.746532279939,7.50132651225218,-10.193706706761,121.203441525395,17.5899510854829,-5.99584563603201,-4.63773840954614
2.81428542112618,-5.24550451166133,8.79788784465983,-10.4644005850908,-28.6608487528459,7.69738326932502,-10.2029938002975,121.260330637285,17.7215773245771,-6.3906067184968,-4.80128642906235
2.59802742013835,-5.25811862542313,8.90267018987247,-10.4780340990951,-28.5782416195774,7.89207117905256,-10.2042263618246,121.298183277349,17.8543088290535,-6.77186270505271,-4.97221574899786
2.40186777197279,-5.2700990052892,9.00586151367591,-10.4898788764799,-28.4997200011231,8.08579036175472,-10.1976836352762,121.317579771957,17.9863849912428,-7.1371755079104,-5.14926915201577
2.22906892856638,-5.28058884065556,9.10773914728435,-10.5003655647165,-28.4262574581098,8.27884580650595,-10.183699792748,121.319236495764,18.1161229510473,-7.48395201104342,-5.33079638800611
2.08296057444865,-5.28879538963856,9.20857335079529,-10.5099172279322,-28.3587656703878,8.47145144185194,-10.1626562875127,121.303978453824,18.2419183340638,-7.80950126613304,-5.51480382262671
1.96659049148468,-5.29400161882486,9.30862578038265,-10.5189455402792,-28.2980700314485,8.66373551058985,-10.1349755052667,121.272711414228,18.362245047152,-8.11109650898511,-5.69901258308852
1.88221808573763,-5.29557615101626,9.4081482942263,-10.5278467982879,-28.2448878945801,8.85574725107915,-10.1011155328747,121.226394674639,18.4756547708084,-8.38604107274589,-5.88092414583737
1.83075108620257,-5.29298129639533,9.50738207421714,-10.536997850641,-28.1998101051315,9.04746484046393,-10.0615658532022,121.166015420503,18.5807767325121,-8.63173712419841,-6.05789208934357
1.81133452410794,-5.28577899365721,9.60655701854515,-10.5467520398811,-28.1632863336744,9.23880449483821,-10.0168437900907,121.092565473491,18.6763182241871,-8.84575587211385,-6.22719845623591
1.82130756915123,-5.27363454391663,9.70589134034743,-10.5574352447369,-28.1356145906786,9.42963055198346,-9.96749156315128,121.007021049557,18.7610661594437,-9.02590756383178,-6.38613288205061
1.85658517745132,-5.25631808050918,9.8055912926454,-10.56934210657,-28.1169351587411,9.61976629170142,-9.91407385525108,120.910325956955,18.8338897868584,-9.17030927400456,-6.53207240390238
1.912302619756,-5.23370378006781,9.90585093234408,-10.5827325211535,-28.1072290314938,9.80900518741279,-9.85717583230139,120.803378474074,18.89374451887,-9.27744825090088,-6.66255969151675
1.98346442923605,-5.20576688159892,10.0068518380294,-10.5978284779331,-28.1063208064915,9.9971222401816,-9.79740157644122,120.687021962447,18.9396767188459,-9.3462384489624,-6.77537735606357
2.06541379654091,-5.17257863892791,10.1087627076191,-10.6148113316538,-28.1138858443857,10.183885027766,-9.73537289691444,120.562039097953,18.970829209043,-9.37606785473782,-6.86861599357101
