Finger Velocity,Scap_X,Scap_Y,Scap_Z,Shoulder horiz abd-adduction,Shoulder flexion-extension,Shoulder internal-external rotation,elbow flexion-extension,forearm pronation-supination,wrist flexion-extension,wrist radial-ulnar deviation
1.56552524047815,-19.8185711435647,20.1678306983478,4.21959780233861,-14.5016875315755,39.0138225854044,1.46238496973416,69.1015031205669,17.7563767246608,-9.26719443846204,13.4861328956714
1.85532010365029,-19.7375993613036,20.0751179919991,4.26900276506013,-14.8768242910302,38.5439028293068,1.91790819965958,69.4171051510145,17.1364664957666,-8.39862824744778,14.9798987670482
2.18703066237991,-19.6540190920717,19.9784406585791,4.32104891872134,-15.2501479007235,38.0495747163765,2.38453342871624,69.7554326844304,16.4807562531269,-7.46432816565545,16.5112921981598
2.56066640742698,-19.5679499193398,19.8778224466705,4.37589156311149,-15.620064382367,37.530891411447,2.86065131726135,70.1170406737915,15.7904344840731,-6.47310078228375,18.0652873393082
2.97618760219477,-19.4795379137189,19.7733096214501,4.43366238592654,-15.9850167066932,36.9880167171645,3.34446387691028,70.5023781790426,15.0670484483206,-5.43455389662119,19.6260702426723
3.43346865715524,-19.3889554072838,19.6649681712947,4.49446656161479,-16.3435065757955,36.4212217951914,3.83399612067048,70.9117871411904,14.3124921281622,-4.35869784020264,21.1775222127749
3.93225054618362,-19.2964006982382,19.5528803580899,4.55838007973684,-16.6941132799868,35.830880683215,4.3271089771101,71.3455030839633,13.5289900405583,-3.25555304262643,22.7036962569447
4.47209522829676,-19.2020976387104,19.4371406310175,4.62544730589809,-17.0355092090951,35.2174648329832,4.82151329060643,71.803657290659,12.7190772289942,-2.13479035859748,24.1892592263302
5.05234620873176,-19.106295032631,19.3178509580086,4.69567877425703,-17.3664717758957,34.5815369194545,5.31478486756991,72.286279928699,11.8855757017175,-1.00542681030681,25.6198763337808
5.67209589288059,-19.0092657510338,19.1951156694214,4.76904921265144,-17.685891673824,33.9237441798659,5.80438066046268,72.7933035442268,11.0315675258703,0.124407212126268,26.982521422503
6.33015926238089,-18.9113054594875,19.0690359502459,4.8454958118485,-17.9927775312661,33.2448115390905,6.28765628139238,73.3245663259418,10.1603647544991,1.24762135761398,28.2657043871024
7.02505320751118,-18.8127308479469,18.9397041541864,4.92491676814382,-18.286257135655,32.5455347684465,6.76188508846341,73.8798145425596,9.27547638057817,2.35823955060707,29.459615088756
7.75498097033495,-18.7138772590179,18.8071981392693,5.00717014841962,-18.5655754842252,31.826773909695,7.22427908829226,74.4587035937452,8.38057258858085,3.45140225511823,30.5561897621004
8.51782134486021,-18.61509562793,18.6715758360663,5.09207314263469,-18.8300899807849,31.0894471710082,7.67201185412866,75.0607971844722,7.47944670113895,4.52330898642952,31.5491105582837
9.3111224558193,-18.5167486763795,18.5328702552518,5.17940177642843,-19.0792631458624,30.3345254621372,8.10224357955878,75.6855642422378,6.57597537271172,5.57111608422777,32.4337513029674
10.1321000704688,-18.4192063411303,18.3910851232071,5.26889115496871,-19.3126532453535,29.5630276790896,8.51214827978658,76.3323733464132,5.674077734964,6.59280546226978,33.2070829992715
10.9776404848863,-18.3228404635777,18.2461913070836,5.36023629950028,-19.5299032717991,28.7760167777148,8.89894302290626,77.0004846249788,4.77767432494893,7.58703906878506,33.867551580719
11.844308071854,-18.2280188137092,18.098124159341,5.45309362253643,-19.7307287327446,27.9745965992252,9.25991893073561,77.6890392867507,3.89064671059442,8.5530116647773,34.4149385316493
12.7283575875619,-18.135098565947,17.9467818812081,5.54708306913783,-19.9149047116623,27.1599093375784,9.5924735426639,78.3970471829276,3.01679875715187,9.49031178999797,34.8502128134111
13.6257513148932,-18.0444193812321,17.7920249777651,5.64179093317953,-20.0822526675984,26.3331334748303,9.89414399820696,79.123373012634,2.15982044516222,10.3987978898349,35.1753804895219
14.5321810773214,-17.9562962768525,17.6336768537334,5.73677334112066,-20.2326274297633,25.4954819603959,10.1626403770729,79.8667219852934,1.32325505223014,11.2784938404475,35.3933367639481
15.44309509429,-17.8710124813455,17.4715255753157,5.83156038204131,-20.365904824205,24.6482003770105,10.3958784512429,80.6256259142126,0.510470352473301,12.1295057148208,35.5077238874673
16.3537295708752,-17.788812475844,17.3053267967526,5.92566085080973,-20.481970342986,23.7925648214849,10.5920110602261,81.3984308308125,-0.275365717984221,12.9519596623684,35.5227974918047
17.2591448258342,-17.7098954167695,17.1348078201912,6.01856756077898,-20.5807092312254,22.9298792317973,10.7494573199723,82.1832872689611,-1.03130471503646,13.7459592738931,35.4433032852317
18.1542656669232,-17.634409120767,16.9596727247005,6.10976317371867,-20.661998321822,22.0614719136906,10.8669289139405,82.9781443664379,-1.75463268724329,14.5115597948827,35.2743655851724
19.0339256246076,-17.5624447747595,16.7796084653269,6.19872648705325,-20.7256998909497,21.1886910602186,10.9434527879613,83.7807488621526,-2.44288077819287,15.2487560139995,35.0213887740499
19.8929145587332,-17.4940325147144,16.5942918064544,6.28493910901204,-20.771657741638,20.3128991156861,10.9783896782596,84.58864993479,-3.09383187937036,15.9574805246673,34.6899723657735
20.7260290609402,-17.4291379975667,16.4033969170005,6.36789243755518,-20.7996956511122,19.435465907904,10.9714480407088,85.3992106354826,-3.70552392373507,16.6376092456067,34.2858399234311
21.5281249917811,-17.3676600721386,16.2066034213454,6.44709483807971,-20.8096182422013,18.5577605556744,10.9226931058994,86.209626419941,-4.27625048759967,17.2889714941043,33.8147815757301
22.2941714185404,-17.3094296363428,16.0036046735208,6.52207889134601,-20.8012142616291,17.6811422479848,10.8325509384306,87.016950992264,-4.80455937851894,17.9113624384,33.282609369996
23.0193051600503,-17.2542097476728,15.7941160069506,6.5924085627286,-20.774262171402,16.8069500820426,10.701807510995,87.8181293433663,-5.28924983546159,18.5045563305959,32.6951242152527
23.6988851003434,-17.2016970294214,15.5778827100723,6.65768613201766,-20.7285378873301,15.936492231168,10.531602904219,88.610037512914,-5.72936886808539,19.0683194801486,32.0580927519747
24.3285454052142,-17.1515243853105,15.3546874891389,6.71755872237176,-20.6638244318909,15.0710347827507,10.3234208124806,89.3895282389009,-6.12420713192088,19.6024224331186,31.3772321693182
24.9042467656229,-17.10326500269,15.1243572014516,6.77172427759201,-20.5799232051353,14.2117906356023,10.0790735835196,90.1534813024991,-6.47329459210429,20.1066512501011,30.6582007953538
25.422324799776,-17.0564375933466,14.8867686727903,6.81993685519234,-20.4766665162962,13.359908872554,9.80068305929991,90.8988570510943,-6.77639608406804,20.5808181113711,29.9065922100881
25.8795347715609,-17.0105127935387,14.6418534494667,6.86201112296132,-20.3539309638254,12.5164650267167,9.4906575285707,91.6227513154358,-7.03350674989901,21.0247717137576,29.1279306607911
26.2730918262201,-16.9649206204264,14.3896013760835,6.89782596440736,-20.2116512094324,11.6824526377455,9.15166515145111,92.322449753743,-7.24484722931947,21.4384080556297,28.3276656840248
26.6007060037112,-16.9190588588482,14.13006293292,6.92732711321346,-20.0498336678922,10.8587764486979,8.78660426891605,92.9954795786618,-7.41085842633177,21.8216822303746,27.5111640567824
26.8606113647066,-16.8723022298786,13.8633503101925,6.9505287508949,-19.8685696305784,10.0462475276037,8.39857105721577,93.6396566650685,-7.5321956603805,22.1746217716173,26.6836975065474
27.0515886519266,-16.8240121718025,13.589637238677,6.96751401758567,-19.6680473546823,9.24558051469963,7.99082502150381,94.2531261982398,-7.60972203926555,22.4973419461115,25.8504249923536
27.1729810084848,-16.7735470471496,13.3091576359001,6.97843440459259,-19.4485626781317,8.45739310108755,7.56675284001991,94.8343952914706,-7.64450094765174,22.7900632107877,25.0163688022011
27.2247023830172,-16.7202725785728,13.0222031623187,6.9835080196606,-19.2105277599841,7.68220774364125,7.12983106982612,95.3823563595271,-7.6377876137126,23.0531308416639,24.1863841739743
27.2072383663133,-16.6635723128733,12.7291198099193,6.98301674164724,-18.9544775981363,6.9204555215959,6.6835882100198,95.8963004531253,-7.59101978051082,23.2870364726586,23.3651226265213
27.1216393237329,-16.6028579159345,12.4303036640902,6.97730230877462,-18.6810740426608,6.17248194850669,6.23156659272773,96.3759202109472,-7.50580755291681,23.4924409385027,22.5569896796122
26.9695058096991,-16.5375791106028,12.1261959873549,6.96676141049151,-18.3911071041231,5.43855447348684,5.77728453987662,96.8213025415301,-7.38392250446143,23.6701974265452,21.7660981315973
26.7529663730202,-16.4672330832733,11.8172777710898,6.95183987446543,-18.0854934492687,4.71887134147384,5.32419918685413,97.2329115820521,-7.2272861148858,23.8213735551112,20.9962185287406
26.4746479829678,-16.391373201207,11.5040638903319,6.93302605705118,-17.7652720781684,4.01357143764973,4.87567033379112,97.6115628688357,-7.03795759068634,23.9472706644558,20.2507288810354
26.1376394245041,-16.3096168994762,11.187096979669,6.91084355889847,-17.4315972831144,3.32274471958406,4.43492564495723,97.9583899695273,-6.81812111673425,24.0494383881688,19.5325660313659
25.7454481258039,-16.2216526132395,10.8669411287374,6.88584339721147,-17.0857290926053,2.64644284295427,4.00502748586711,98.2748050543381,-6.5700725865287,24.1296825164606,18.8441813217614
25.30195099164,-16.127245648108,10.5441754792597,6.8585957712142,-16.729021493335,1.98468960907965,3.5888416784697,98.5624550270581,-6.29620584152271,24.1900642937903,18.1875032735958
24.8113399221658,-16.0262428987087,10.2193877960001,6.82968155687964,-16.3629087902498,1.33749089830856,3.18900847499972,98.8231749026573,-5.99899842060493,24.2328896233845,17.5639098861679
24.2780627983417,-15.9185763432203,9.89316808129885,6.79968366249042,-15.988890504311,0.70484379674344,2.80791609754212,99.0589400982894,-5.68099679292815,24.2606871878878,16.9742128496646
23.7067608132602,-15.8042652606988,9.56610230285866,6.76917837168728,-15.6085152182722,0.0867446722683566,2.44767725034514,99.271819186963,-5.34480101807667,24.2761752248605,16.4186554492499
23.1022031235174,-15.6834171396812,9.23876630349922,6.73872679906233,-15.2233637651384,-0.51680399190276,2.11010906863681,99.4639284612794,-4.99304874568987,24.2822175535141,15.8969252197969
22.4692198870032,-15.5562272704472,8.9117199594705,6.70886658688429,-14.8350321193968,-1.10578814495638,1.79671700379898,99.6373894055613,-4.62839844972571,24.2817703196266,15.4081815615804
21.8126348428488,-15.422977036711,8.5855016531738,6.68010397942536,-14.4451143107071,-1.68017818717729,1.50868314446307,99.7942899172324,-4.25351181185785,24.2778216778976,14.9510976465667
21.1371986745482,-15.2840309418215,8.26062312900188,6.65290642115085,-14.0551856490019,-2.23992650656961,1.24685942682254,99.9366498783534,-3.87103523490607,24.2733271583513,14.5239151398044
20.4475244755483,-15.139832418091,7.93756480674304,6.62769583338268,-13.6667865365398,-2.78496654224522,1.01176609567898,100.066391466883,-3.48358057661809,24.2711437077602,14.1245096245142
19.7480267027875,-14.9908984778052,7.61677163160078,6.60484272700784,-13.2814071391403,-3.31521334579942,0.803595650358824,100.185314415277,-3.09370532184784,24.273965354535,13.7504642119581
19.0428650500008,-14.837813275343,7.29864953914545,6.58466130286067,-12.9004731806744,-3.83056557256435,0.622222361143119,100.295076267735,-2.70389252343546,24.2842631581118,13.3991486473084
18.3358946885326,-14.6812206646035,6.98356260674785,6.56740567483448,-12.5253331025995,-4.33090879534561,0.467217285400256,100.397177552099,-2.31653091775189,24.3042316441556,13.0678012530518
17.6306242958679,-14.5218158540778,6.67183095244426,6.55326732401818,-12.1572467933126,-4.81611999668563,0.337868556845319,100.492951665222,-1.93389565175398,24.3357433778112,12.7536112202175
16.9301832065296,-14.3603362810432,6.36372942792263,6.54237385676561,-11.7973760430041,-5.28607306188475,0.233206571004747,100.58355917184,-1.55813004249831,24.3803127624467,12.4537990047886
16.2372988621335,-14.1975518446007,6.05948713077841,6.53478909701564,-11.4467768232811,-5.74064506315259,0.152033546811757,100.669986138296,-1.19122873986281,24.4390696257148,12.1656928633698
15.5542854958116,-14.034254653369,5.75928773025582,6.53051449541551,-11.1063934352657,-6.17972309749478,0.0929568078994819,100.753046064032,-0.835022604081981,24.5127427041044,11.8867998294945
14.8830446554582,-13.8712484566839,5.46327056504679,6.52949178935477,-10.7770545221853,-6.6032114218919,0.0544249982549085,100.833384934877,-0.491165559188318,24.6016527791005,11.6148696629024
14.2250777540211,-13.7093379384996,5.17153243974116,6.53160680479543,-10.4594709030331,-7.01103862317833,0.0347663308681014,100.911488900365,-0.161123643587554,24.7057149539749,11.3479504913972
13.5815103486341,-13.549318063036,4.88413002290612,6.53669425665683,-10.1542351480899,-7.40316456845783,0.0322278751210789,100.987694069906,0.153833552770617,24.8244493824334,11.0844350212405
12.9531273216035,-13.3919636715871,4.60108273397125,6.5445433804124,-9.86182278053224,-7.77958690249072,0.0450148313435678,101.062197928618,0.452638902330102,24.9569996597765,10.8230963387857
12.340417604154,-13.2380195372897,4.32237599687795,6.55490421365123,-9.5825949500438,-8.14034688537952,0.0713287297312999,101.135071895312,0.734431074638047,25.1021580528191,10.5631124816097
11.743626594793,-13.0881910827079,4.04796473636371,6.56749434285078,-9.31680238896243,-8.48553439302719,0.109403529884905,101.206274585077,0.998555107867611,25.2583967603524,10.3040791349645
11.162814025802,-12.9431359493413,3.77777699864915,6.58200593639583,-9.06459043838058,-8.81529193589674,0.157538683431416,101.275665395581,1.24456019393239,25.4239044437835,10.0460100184352
10.5979147652743,-12.8034565782726,3.51171759117441,6.59811289694359,-8.82600492726347,-9.12981759042257,0.214128348685217,101.34301810514,1.47219472336325,25.5966273324798,9.78932477462346
10.0487999367179,-12.6696939205137,3.24967165189046,6.61547798097597,-8.60099869865496,-9.42936677637592,0.277686105147779,101.408034247059,1.68139871097806,25.7743142718774,9.53482446326896
9.51533580356094,-12.5423223501602,2.99150807241947,6.63375974823914,-8.3894385936366,-9.71425284404681,0.346864697520823,101.470356104217,1.87229379942732,25.9545651188522,9.28365510959729
8.99743809133065,-12.4217458100275,2.73708270936155,6.6526192176669,-8.19111271847352,-9.98484645706481,0.420470534026828,101.529579243514,2.04517110383757,26.1348818719974,9.03726016051695
8.49511977566513,-12.3082951832419,2.4862413262961,6.67172611887995,-8.00573783086507,-10.2415737773214,0.497472863748314,101.585264573412,2.20047720586466,26.3127218378006,8.79732315817722
8.00853080399044,-12.2022268578286,2.23882221795529,6.69076463931028,-7.83296668703323,-10.4849134816547,0.577007753995869,101.636949955348,2.3387986299454,26.4855519773919,8.56570241614439
7.5379886871643,-12.1037224344261,1.99465847872055,6.70943857732921,-7.67239519346824,-10.7153926647843,0.65837717204276,101.684161429883,2.46084515210782,26.6509033727356,8.34435992576233
7.08399933531455,-12.0128895175569,1.75357989145466,6.72747582348198,-7.52356920858321,-10.9335817103177,0.741043637126683,101.726424126927,2.56743231752666,26.8064245321075,8.13528706959121
6.64726786145079,-11.9297635248185,1.51541443102197,6.74463210684994,-7.38599084532411,-11.1400882438945,0.824621040461682,101.763272912278,2.65946357826514,26.9499320656046,7.94042993138215
6.22869928456863,-11.854310442507,1.27998939858358,6.76069396168404,-7.25912414288632,-11.3355503184532,0.90886232537026,101.794262782738,2.7379124907238,27.0794571442932,7.76161704912746
5.82938908796126,-11.7864304487819,1.04713222470825,6.77548088874329,-7.14240001140413,-11.5206290168079,0.993644770493967,101.818978968407,2.80380541155458,27.1932861452989,7.60049235777868
5.45060340264334,-11.7259623169266,0.816670998202208,6.78884670345826,-7.03522040983753,-11.6960006867315,1.07895362384232,101.837046642107,2.85820509087709,27.2899939974757,7.45845581854136
5.09374819779252,-11.672688503191,0.588434791102167,6.80068007739829,-6.93696178720509,-11.8623490441391,1.16486479518547,101.848140077352,2.90219548879639,27.3684689741259,7.33661385020071
4.76032634163876,-11.6263408172823,0.362253858083989,6.81090429081342,-6.8469778880996,-12.0203573864343,1.25152723484738,101.851991044291,2.93686805005014,27.4279280057714,7.23574119654762
4.45188093262177,-11.5866065690472,0.137959791936673,6.81947622404608,-6.76460208337882,-12.1707011485741,1.33914552070352,101.84839619603,2.96330957184611,27.4679219705473,7.15625532613605
4.16992325063523,-11.5531350822848,-0.0846142831321311,6.82638462626707,-6.68914942973344,-12.3140410106869,1.42796305788791,101.837223185443,2.98259169250154,27.4883308258615,7.09820391276717
3.91584460477148,-11.5255444661907,-0.305633403112002,6.83164771196645,-6.61991868736469,-12.4510167326796,1.51824618063885,101.818415271729,2.99576191610928,27.4893488488491,7.06126541871427
3.69081393696283,-11.5034285368087,-0.525260275839775,6.83531014829046,-6.55619453565642,-12.5822418520115,1.61026934293874,101.791994228869,3.00383598652415,27.4714606512743,7.04476230029182
3.49566774371436,-11.4863637847773,-0.743654569725101,6.83743950893705,-6.49725022176028,-12.7082993369906,1.70430150352464,101.758061451385,3.00779135633076,27.435409031616,7.04768586308665
3.33080531048257,-11.4739162908729,-0.960971966408764,6.83812228339744,-6.44235085180574,-12.8297382395911,1.80059375850285,101.716797257642,3.00856148170195,27.38215610784,7.0687313162388
3.19610847167191,-11.4656484961486,-1.17736299754061,6.83745954494239,-6.3907574861031,-12.9470713405514,1.89936825320251,101.668458503684,3.00703071578379,27.3128394891603,7.1063411583061
3.09090757499036,-11.4611257374352,-1.39297171707411,6.83556239605859,-6.34173213138733,-13.0607737299985,2.00080841240348,101.613374725723,3.00402965939688,27.228725430244,7.15875474712337
3.01401037218796,-11.4599224612601,-1.6079342840167,6.8325473224011,-6.29454364258972,-13.1712822260474,2.10505055912915,101.551943112131,3.00033093653307,27.1311609283313,7.22406181777698
2.96379719965792,-11.4616280316156,-1.82237754279436,6.8285315918373,-6.24847446259112,-13.2789955082784,2.21217703442968,101.484622655669,2.99664546944248,27.0215265824098,7.30025780699087
2.93836791301973,-11.4658520521595,-2.03641768891004,6.82362883275182,-6.20282804933527,-13.3842748348691,2.32221096693135,101.411927849193,2.99361941453441,26.9011917809713,7.38529905296911
2.93571115243979,-11.4722291326654,-2.25015909901033,6.81794491739703,-6.15693677393571,-13.4874452182976,2.43511285623005,101.334422264747,2.99183197376486,26.7714734737374,7.47715619627458
2.95386137693026,-11.4804230416923,-2.46369339044121,6.81157426445077,-6.1101700289701,-13.5887969491117,2.55077911724365,101.252712303695,2.99179431232512,26.6335994519589,7.57386437265377
2.9910153266144,-11.4901302003593,-2.67709875859697,6.80459666189412,-6.0619422683079,-13.6885873746329,2.66904267653779,101.167441336325,2.99394979476624,26.4886767408827,7.67356905463151
3.04559319759849,-11.5010824846012,-2.89043962250353,6.79707469739718,-6.01172070783197,-13.7870428547343,2.78967561985684,101.079284377243,2.99867570578972,26.3376654239139,7.77456666082209
3.11624459726157,-11.5130493161756,-3.10376659176943,6.78905186798898,-5.95903244260095,-13.8843608268805,2.91239378066687,100.988943377881,3.00628655825037,26.1813579929796,7.87533929813159
3.20181045014072,-11.5258390377078,-3.31711675289776,6.78055142232892,-5.90347077030355,-13.9807119177141,3.03686305693244,100.897143162154,3.01703901673615,26.0203641653264,7.97458321845719
3.301257577825,-11.5392995847671,-3.53051425979015,6.77157596598987,-5.84470054705921,-14.0762420426564,3.16270716469505,100.804627983934,3.03113838364461,25.8551010219613,8.07123075065592
