Finger Velocity,Scap_X,Scap_Y,Scap_Z,Shoulder horiz abd-adduction,Shoulder flexion-extension,Shoulder internal-external rotation,elbow flexion-extension,forearm pronation-supination,wrist flexion-extension,wrist radial-ulnar deviation
1.02587613385897,-23.2421061369697,25.1878285983805,1.11992717988808,-13.2436571857417,40.8286321809282,0.942626675738141,74.3432352167211,27.8025835114891,-23.1550128379717,-1.03622087716103
1.25869640501718,-23.274362153001,25.2013149417614,1.12963108296248,-13.2206376024851,40.8125308101093,0.917565843949585,74.3736857935598,27.5385744952793,-23.1688317235197,-1.07274571620284
1.50816754586225,-23.3123734772325,25.2158281816181,1.14295458620995,-13.1876842847882,40.7999258499378,0.883543296084188,74.4165227035038,27.2312447088319,-23.1617164152442,-1.09213035363688
1.77180993998643,-23.3563426487476,25.2312750174648,1.16013043836068,-13.1434891467309,40.7912826158153,0.839947831886262,74.4723469458333,26.8793754089883,-23.1323047080153,-1.09311292194426
2.0471247391025,-23.4064037747119,25.2475444688564,1.18136192759405,-13.086737643781,40.787000346922,0.786269502913626,74.5415269497642,26.4822540693387,-23.0799631948808,-1.07504322109344
2.33150572884717,-23.4626169659162,25.2645087320214,1.20681876764153,-13.0161248856848,40.7873932350052,0.722115311019107,74.6241662106642,26.039719678315,-23.0049243692722,-1.03799215870314
2.62221147993092,-23.5249640552449,25.2820243728177,1.23663373800459,-12.9303721973669,40.7926718574967,0.647223147935251,74.7200750211889,25.552201118962,-22.9083983236894,-0.982837287019411
2.91636865178449,-23.5933456937402,25.2999338231883,1.27090019922855,-12.8282438351963,40.8029256609261,0.561473600152058,74.8287475176763,25.020747104474,-22.7926464217403,-0.91131373647334
3.21099311089857,-23.667579859331,25.318067135765,1.30967055681099,-12.7085635774765,40.818107168904,0.464899326498004,74.949345212884,24.4470460298533,-22.6610049667822,-0.826020689527576
3.50302214063986,-23.7474017570074,25.3362439395776,1.35295569814669,-12.5702309276726,40.8380185925626,0.35769181376476,75.0806880815627,23.833434043636,-22.5178491005507,-0.730375878712314
3.78935395209816,-23.8324650443118,25.3542755336933,1.40072538397533,-12.4122366903178,40.8623014945491,0.240205415658383,75.221254094762,23.1828896816798,-22.3684911118111,-0.628514569993751
4.0668920691371,-23.9223442861519,25.3719670609281,1.45290954490048,-12.2336776971636,40.8904300935634,0.11295866648649,75.3691878516367,22.4990135714699,-22.2190129501444,-0.525134971334494
4.33259282059882,-24.0165385275493,25.3891197213884,1.50940041440002,-12.0337704727359,40.921708691722,-0.0233670769981281,75.5223186250442,21.7859920362086,-22.0760396045434,-0.425298477586223
4.58351450539351,-24.1144758699642,25.4055330079844,1.57005541562511,-11.811863636765,40.9552735651786,-0.167931573076103,75.6781877184766,21.0485439145683,-21.9464672708581,-0.334199707672598
4.81686697564028,-24.215518945019,25.4210069613502,1.63470070217476,-11.5674488523886,40.9900994891078,-0.319742093406421,75.8340845430362,20.2918505543075,-21.8371666726439,-0.256926674381498
5.03006049326442,-24.3189711978294,25.4353444407465,1.70313522968672,-11.3001701493776,41.0250108846471,-0.477662141698719,75.9870903017232,19.5214697021915,-21.754686187047,-0.198234371074142
5.22075279899383,-24.4240839181949,25.4483533890338,1.77513520835165,-11.009831481835,41.0586973919558,-0.640422331296086,76.1341276691277,18.7432348464351,-21.7049805206952,-0.162354614219078
5.38689341152743,-24.5300639860559,25.4598490400838,1.85045876209624,-10.6964024157433,41.0897335029016,-0.806633243969286,76.2720144418164,17.9631424075784,-21.6931881548009,-0.15286085771018
5.52676426001211,-24.6360823205426,25.4696559872874,1.92885060396531,-10.3600218768195,41.1166017389125,-0.974800086068861,76.3975188720843,17.1872299498204,-21.7234749596732,-0.172599427375122
5.63901584998178,-24.7412830331123,25.4776100132927,2.0100465344848,-10.0009999166039,41.1377187418683,-1.14333896738703,76.5074143364964,16.4214492272644,-21.7989532855587,-0.223689504810474
5.72269827279162,-24.8447932808507,25.4835595807484,2.09377758429367,-9.61981746994021,41.1514635646302,-1.31059465475239,76.5985311550028,15.6715383260969,-21.9216769395459,-0.307584973199455
5.7772864896026,-24.9457337948642,25.4873669027796,2.17977365385136,-9.21712408088385,41.156207405602,-1.47485969196061,76.667803754414,14.9428973702534,-22.0927042894271,-0.42518366363048
5.80269944877243,-25.0432300221388,25.4889085462487,2.26776654689181,-8.79373357333938,41.1503440258958,-1.6343948186374,76.7123119142997,14.2404722056403,-22.3122154913296,-0.576964861546969
5.79931272289512,-25.1364237710347,25.488075563115,2.35749234365286,-8.35061764676322,41.1323201107207,-1.7874506483487,76.7293154698662,13.5686501720121,-22.5796661555312,-0.763134652918964
5.7679644681007,-25.2244851964451,25.4847731867005,2.44869310764768,-7.8888973946792,41.1006648795952,-1.93229056660564,76.7162824877343,12.9311715359037,-22.8939587320774,-0.983760569323487
5.70995459863479,-25.3066249071133,25.4789201632774,2.54111795971643,-7.40983277949842,41.054018305228,-2.06721477298771,76.6709114917739,12.3310594298485,-23.2536141901565,-1.23888122994819
5.62703711365954,-25.38210593077,25.4704478113207,2.63452358200914,-6.91481014977632,40.991157362586,-2.19058531790934,76.5911487291079,11.7705702726553,-23.6569295818959,-1.52858216731493
5.52140548324637,-25.4502552375178,25.4592989108929,2.72867423307614,-6.4053279491132,40.9110197930468,-2.30085188175155,76.475201690795,11.2511656958018,-24.1021110693196,-1.85303462212141
5.39567086162867,-25.5104745016281,25.4454265268111,2.82334136649505,-5.88298083252015,40.8127249302875,-2.39657792466479,76.3215501308678,10.7735060476971,-24.587376199409,-2.21249888769461
5.25283260651016,-25.5622497782386,25.4287928659937,2.91830295217575,-5.34944247062242,40.6955911946299,-2.4764667129844,76.1289556854925,10.337464673261,-25.1110230402835,-2.60729724965058
5.096240101791,-25.6051597846067,25.4093682655664,3.01334260268968,-4.80644737814016,40.5591499240084,-2.53938661651335,75.8964709242347,9.94216144240107,-25.6714668901191,-3.03776357594093
4.92954418115823,-25.6388825050418,25.3871304054623,3.10824860704686,-4.25577214342429,40.4031552755488,-2.5843949818166,75.6234483175561,9.58601346662207,-26.2672475202707,-3.50417733555839
4.75663555363932,-25.6631998833344,25.362063836436,3.20281297219836,-3.69921645620597,40.2275900022284,-2.61075982857352,75.3095492286998,9.26680059978722,-26.8970113581277,-4.0066895783812
4.5815666675659,-25.6780004244479,25.3341599091039,3.29683056944169,-3.13858433165989,40.0326669834384,-2.6179785948103,74.9547526802624,8.98174314203717,-27.5594737875527,-4.54524754589341
4.40845273401028,-25.6832795951281,25.3034171787662,3.39009847917982,-2.57566591370316,39.8188264670915,-2.60579317675448,74.5593633422478,8.72758911714797,-28.2533670116153,-5.11952341997258
4.2413477574724,-25.6791379862361,25.2698423418577,3.48241562185613,-2.01222021373194,39.5867290652497,-2.57420057148246,74.1240179617571,8.50070853106038,-28.9773788399328,-5.72885149706402
4.08409327285307,-25.6657772732876,25.2334517325454,3.57358275311739,-1.44995910799169,39.337244634199,-2.5234585327152,73.6496893164069,8.29719210282879,-29.7300874644013,-6.37217695154019
3.94014203667019,-25.6434940828876,25.1942733751484,3.66340288558213,-0.890532880657012,39.0714372604142,-2.45408578741282,73.1376867298622,8.11295205773518,-30.5098968855273,-7.0480184008106
3.812366658323,-25.6126719408814,25.1523495542523,3.75168217778272,-0.335517558601313,38.7905466637072,-2.36685652878033,72.5896522391546,7.94382266972895,-31.3149772296177,-7.75444572405387
3.70287316125211,-25.5737715430248,25.1077398324052,3.83823130406933,0.213595767345444,38.4959664182224,-2.26278909386071,72.007551642866,7.78565833484923,-32.1432137873671,-8.48907399345301
3.61284859819253,-25.5273196494471,25.0605244145026,3.92286728930409,0.755409505299059,38.1892194811485,-2.14312894098863,71.393659871154,7.6344270544136,-32.9921681865137,-9.24907390099666
3.54247513021097,-25.473896957162,25.0108077256242,4.00541576075553,1.28862596023431,37.871931605032,-2.00932625217667,70.7505403806632,7.48629731470784,-33.8590546322302,-10.0311986414101
3.49093596468103,-25.4141253466571,24.9587220328562,4.08571353827157,1.81205160896637,37.5458032857606,-1.86300868861472,70.0810185656564,7.33771648126168,-34.7407335462854,-10.8318267776687
3.45652086991974,-25.3486549250869,24.9044309021292,4.16361145423804,2.32459938838803,37.2125809574985,-1.70595001609656,69.3881494709387,7.18547900041747,-35.6337241541505,-11.6470201141994
3.43681624459136,-25.2781512958111,24.8481322432159,4.23897726876068,2.82528921877378,36.8740281828882,-1.54003548075501,68.6751803767854,7.02678294170809,-36.5342365803212,-12.4725950045204
3.42894610623763,-25.2032834688363,24.7900606679279,4.311698524574,3.31324705006222,36.5318975977138,-1.36722494119252,67.9455090860746,6.85927373614477,-37.4382228432432,-13.3042048409578
3.4298231263138,-25.1247127882539,24.7304888770628,4.38168517261684,3.78770275976822,36.187904348921,-1.18951484222186,67.2026389609795,6.68107436368662,-38.3414448863067,-14.1374307825117
3.43637409463992,-25.0430831931626,24.6697278079744,4.44887179642014,4.24798724697684,35.8437017075878,-1.00890014660652,66.4501319123572,6.49080169404576,-39.2395565820951,-14.9678771741503
3.44571732664085,-24.9590130519726,24.6081253205689,4.51321927435158,4.69352906064246,35.5008594412142,-0.827337327359924,65.6915606273237,6.28756915532247,-40.1281956528421,-15.7912676965957
3.45528403446484,-24.8730887204168,24.5460632746084,4.57471574349784,5.12385087331777,35.1608453968974,-0.646709466580314,64.9304613287463,6.07097636443061,-41.0030807812928,-16.6035381309509
3.46288687239093,-24.7858598736833,24.4839529517659,4.63337676514482,5.53856606187376,34.8250105898885,-0.468794407104581,64.1702883037722,5.84108677596552,-41.8601089145077,-17.4009217612554
3.46674511951843,-24.6978365553995,24.422228897257,4.6892446366636,5.9373755827845,34.4945779229347,-0.295236761385478,63.4143713298094,5.59839476469138,-42.6954479037871,-18.1800238687082
3.46547795210666,-24.6094877769683,24.3613413915584,4.74238684620983,6.32006523435775,34.1706344894695,-0.127524406762796,62.6658769764417,5.34378382454508,-43.5056201330715,-18.937882453221
3.45807655392766,-24.5212414042081,24.3017478975243,4.79289372273502,6.68650329520387,33.8541272492629,0.0330300975496091,61.9277745800488,5.07847772946136,-44.2875735742669,-19.672013171164
3.44386388298882,-24.4334850054971,24.2439039324671,4.84087538865192,7.0366384386646,33.5458617326629,0.185302938972513,61.2028074854386,4.80398656091864,-45.0387376645948,-20.3804374054423
3.42244873170347,-24.3465673227704,24.1882538536405,4.88645816599278,7.37049776557089,33.2465033606548,0.328367299561168,60.4934699376161,4.52204947814372,-45.7570624377664,-21.0616933040084
3.39367877568794,-24.2608000608981,24.1352220043098,4.92978061033754,7.68818477686442,32.9565809761011,0.461496596945989,59.8019897974535,4.23457600879646,-46.441040380992,-21.7148304806553
3.35759576607515,-24.1764597512616,24.0852045687033,4.97098935041954,7.98987711174679,32.6764922436062,0.584163061774377,59.1303170576098,3.94358749101941,-47.089711455163,-22.3393898230352
3.31439487107246,-24.0937895090543,24.0385623734412,5.01023490365775,8.2758238891637,32.4065106454247,0.696032117157583,58.480117961351,3.65116012007482,-47.7026525311329,-22.9353704502201
3.26438933750416,-24.0130005600063,23.9956147860064,5.04766762685294,8.54634250030663,32.1467938437793,0.796953096051296,57.8527743882619,3.35937085910375,-48.2799531086338,-23.5031862639266
3.20798103626791,-23.9342734613682,23.9566348023085,5.08343394822591,8.80181470789104,31.8973931925374,0.88694686169987,57.2493880730648,3.07024727516286,-48.822179572742,-24.0436147262033
3.14563700628617,-23.8577589875825,23.9218453694741,5.11767300912192,9.04268192151173,31.6582641818306,0.966190898150084,56.6707891642701,2.78572216608905,-49.3303304126143,-24.5577404921479
3.07787177028136,-23.7835786931671,23.8914169437447,5.15051381967705,9.2694395455987,31.4292776034634,1.0350024224874,56.1175485982883,2.50759365508876,-49.8057848167042,-25.0468963812994
3.00523493219597,-23.7118252007156,23.865466238858,5.1820730041727,9.48263034315233,31.2102312325453,1.0938200447189,55.5899937483752,2.23749125021377,-50.2502469229438,-25.5126039423895
2.92830336370538,-23.6425622879337,23.8440560876401,5.21245318161309,9.68283682528077,31.0008618225192,1.14318447214811,55.0882267952343,1.97684819498839,-50.6656877858608,-25.956515587588
2.84767713761167,-23.5758248647879,23.8271963242387,5.24174199738594,9.87067275566628,30.8008572027213,1.18371872938285,54.6121452549136,1.72688027247131,-51.05428684925,-26.3803599560188
2.76397826409756,-23.5116189425633,23.814845592261,5.27001179295258,10.0467739347978,30.6098682558271,1.21610834587579,54.1614640958432,1.48857106673145,-51.4183743998916,-26.7858918205459
2.67785122729544,-23.449921702533,23.8069139857439,5.29731987172134,10.2117884876187,30.4275205461782,1.24108194751877,53.7357388855641,1.26266353541498,-51.7603761484531,-27.1748474923501
2.58996429841129,-23.3906817726091,23.8032664284587,5.32370929159461,10.3663669172487,30.2534253726879,1.25939266943949,53.3343894267934,1.04965761013878,-52.0827607694054,-27.5489063237395
2.5010106101838,-23.3338198142551,23.8037266916825,5.34921009151439,10.5111522101353,30.0871900294052,1.27180077460549,52.9567233670136,0.849813422423269,-52.387990967169,-27.9096585810003
2.41170800795599,-23.2792295081003,23.8080819442835,5.37384084405177,10.6467702853554,29.9284270702333,1.27905781297068,52.6019592941585,0.663159654201798,-52.6784784504785,-28.2585796782519
2.32279673972875,-23.2267790060427,23.8160877244147,5.39761042003768,10.7738210709705,29.7767623928032,1.28189259226192,52.269248864327,0.48950643630593,-52.956543100697,-28.5970105489028
2.23503411214373,-23.1763128929211,23.82747321933,5.42051985388751,10.8928704645776,29.6318419838053,1.28099916126373,51.9576975466485,0.328462169454232,-53.2243765901937,-28.9261437868822
2.14918533295938,-23.1276546751909,23.8419467372081,5.44256420791702,11.0044433997616,29.4933372073029,1.2770269353444,51.6663836157822,0.17945362102716,-53.4840106998451,-29.2470151021668
2.06600990929872,-23.0806097894056,23.8592012516712,5.46373434813634,11.1090182023581,29.3609485692194,1.27057302536936,51.3943750751092,0.0417486522188607,-53.7372905621529,-29.5604995863301
1.9862432163267,-23.0349691000565,23.8789198975384,5.48401856054367,11.2070223836905,29.2344079532268,1.26217676684378,51.140744256046,-0.0855190537957885,-53.9858530041571,-29.8673122619076
1.91057324461742,-22.990512833775,23.9007812980329,5.5034039546124,11.2988299804864,29.1134793913213,1.25231638636925,50.9045799140557,-0.20332386681706,-54.2311100847851,-30.1680123862889
1.83961312131037,-22.9470148747069,23.9244646107731,5.52187761898455,11.3847605096096,28.9979584986558,1.24140768676158,50.6849967289192,-0.312721261284872,-54.4742378236367,-30.4630109861845
1.77387078849033,-22.90424732516,23.9496541923608,5.53942751308063,11.4650795598944,28.8876707551317,1.22980458059267,50.4811422072514,-0.414820588240425,-54.7161700186373,-30.7525811013831
1.71371814392004,-22.8619852187016,23.9760437984565,5.55604309730146,11.5400009964108,28.782468846021,1.2178012555821,50.2922010681864,-0.510758088967522,-54.9575969668824,-31.0368702124579
1.6593628277832,-22.8200112620041,24.0033402564884,5.57171572354139,11.6096907062766,28.6822292799582,1.20563571594054,50.1173972646516,-0.601670660867916,-55.1989688380068,-31.3159143213516
1.61082639517388,-22.7781204785481,24.0312665687642,5.58643882625222,11.6742717672016,28.5868484943695,1.19349441350544,49.9559938576015,-0.68867088357279,-55.4405033825049,-31.5896531547885
1.56793253786013,-22.7361246322877,24.059564421455,5.60020797075832,11.7338308662918,28.4962386468158,1.18151766334511,49.8072910245749,-0.772823810761867,-55.6821975754706,-31.8579459757658
1.53030810733308,-22.6938563215174,24.0879960878049,5.61302082715229,11.7884257376376,28.410323281299,1.16980553245773,49.6706225453894,-0.855126020864276,-55.9238427190132,-32.1205875243214
1.49739799424532,-22.6511726500345,24.1163457224072,5.62487714193622,11.8380933305025,28.3290330509426,1.15842389936506,49.5453511578187,-0.936487389048125,-56.1650424877114,-32.3773236674676
1.46849279767849,-22.6079584014192,24.1444200504022,5.63577877426976,11.8828583774326,28.2523016689844,1.14741040805787,49.4308632039284,-1.01771598630971,-56.4052334090557,-32.6278664126515
1.44276624124287,-22.5641286603866,24.1720484655563,5.64572984998675,11.92274201385,28.1800622438954,1.13678008111951,49.3265629856331,-1.0995064236675,-56.643707301532,-32.8719080153152
1.41931800927676,-22.5196308410992,24.1990825672887,5.6547370667208,11.9577701128332,28.112244127979,1.12653041013074,49.2318672137106,-1.18243184011777,-56.8796352174361,-33.1091339754614
1.39721737715988,-22.4744460955143,24.2253951872429,5.66281016077235,11.9879810392619,28.0487703718927,1.11664580015227,49.1461998718343,-1.26693959052773,-57.112092439989,-33.3392347634238
1.37554363420115,-22.4285900858323,24.2508789762849,5.66996252395667,12.0134325881825,27.9895558333149,1.10710130189946,49.0689877356351,-1.35335054055878,-57.3400840641949,-33.5619161429271
1.35342051287095,-22.3821131152175,24.2754446390336,5.67621193882869,12.0342079413638,27.9345059404826,1.0978656147484,48.9996566990441,-1.44186173923522,-57.5625706586018,-33.7769079790347
1.33004322245226,-22.3350996212164,24.2990189139683,5.6815813844207,12.0504205423467,27.8835160647031,1.08890338404002,48.937628978746,-1.53255213106556,-57.7784934794281,-33.9839714407941
1.30469789622956,-22.2876670462726,24.3215424030058,5.68609985163434,12.0622178451666,27.8364714149863,1.08017684851054,48.8823212021774,-1.6253908955929,-57.986798709907,-34.1829045416512
1.27677411755778,-22.2399641073818,24.3429673558884,5.68980309633386,12.0697839289868,27.7932473376583,1.07164692036789,48.8331433405357,-1.72024796136136,-58.1864602370109,-34.3735460106833
1.24577166259893,-22.1921684899604,24.363255512549,5.69273424813451,12.0733409872714,27.7537098880982,1.06327380257046,48.7894984268532,-1.81690622600919,-58.3765005484111,-34.5557775575922
1.21130275391914,-22.144483989005,24.3823761007478,5.69494418513407,12.0731496984937,27.7177165428963,1.05501726391032,48.7507829980331,-1.91507501437068,-58.5560094168842,-34.7295246807069
1.17309106349763,-22.0971371157462,24.4003040755666,5.69649158234095,12.0695084727801,27.685116939069,1.0468366998588,48.7163882147943,-2.01440431179386,-58.7241601239922,-34.894756255767
1.13096853479707,-22.0503731836248,24.4170186714642,5.69744254668666,12.0627515525045,27.6557535595797,1.03869110419475,48.685701640474,-2.11449931143785,-58.8802230586591,-35.0514832118204
1.0848708863383,-22.0044518861465,24.432502318714,5.69786976467385,12.0532459292389,27.6294623248268,1.03053906385337,48.6581096946074,-2.21493480634234,-59.0235766138147,-35.1997566279568
1.03483246278163,-21.959642382054,24.4467399573081,5.6978511089329,12.0413870274686,27.6060730907682,1.02233886883377,48.6330008358098,-2.31526893960483,-59.1537153938022,-35.3396655603438
0.980980943645751,-21.9162179106823,24.4597187639876,5.69746767613367,12.0275931003054,27.5854100915407,1.01404880190376,48.6097695659889,-2.41505580747203,-59.2702558250208,-35.4713348384752
0.923532325040175,-21.8744499732081,24.4714282905386,5.69680125988674,12.0122982878816,27.5672923967347,1.00562764184447,48.5878213800101,-2.51385640686219,-59.3729393194359,-35.5949229715503
0.862786579134538,-21.8346021347319,24.4818609921658,5.69593129675055,11.9959443077394,27.5515344803103,0.997035384042595,48.5665788078075,-2.61124744960024,-59.4616331729955,-35.7106202052516
