Finger Velocity,Scap_X,Scap_Y,Scap_Z,Shoulder horiz abd-adduction,Shoulder flexion-extension,Shoulder internal-external rotation,elbow flexion-extension,forearm pronation-supination,wrist flexion-extension,wrist radial-ulnar deviation
1.80780577288952,-18.3520674051354,20.6834298997227,0.882321246014231,-18.7300532342902,41.0225769483826,4.78656767300725,68.1579245355908,17.6035532096371,-18.5813218392,-3.29180540850146
2.18827815926786,-18.2540261619008,20.6650485043616,0.887443849272922,-19.3408752163372,40.439848207655,5.48981809062773,68.5281860924965,17.0493223350905,-17.831329159057,-2.32827991038726
2.60338084777658,-18.1623457788612,20.6435040905281,0.900702835999004,-19.9322849634517,39.8354015886995,6.18744879258277,68.9367327074977,16.4756496589456,-17.0361340321673,-1.34383341011254
3.05182720065444,-18.0771809669405,20.6187590321086,0.922212961977969,-20.5012642436872,39.2100157337605,6.87596325337725,69.3838821499564,15.8822803997087,-16.2020589747388,-0.347031244820618
3.53221080096382,-17.9985708701233,20.5908263234087,0.95200329487661,-21.0451905763816,38.5644441280122,7.55195113616461,69.8697185468372,15.269002381435,-15.3352082941773,0.65420062143838
4.04293899619826,-17.9264400475697,20.5597657767458,0.990019082814223,-21.5618537424624,37.8994002229123,8.21211467016621,70.3940946897261,14.6356596075768,-14.4412232265598,1.6528406814847
4.58220409816864,-17.8606015884608,20.5256787662216,1.03612499837713,-22.0494616286548,37.2155460248828,8.85329459445349,70.9566354514461,13.9821658606532,-13.5251010313992,2.64295677500094
5.14797635297299,-17.8007622746496,20.4887016711976,1.09010964414773,-22.5066359474667,36.5134846991045,9.47249571723536,71.5567414615673,13.3085186484264,-12.5910851984777,3.61980329657911
5.738010540849,-17.7465296620828,20.4489981901442,1.1516911793443,-22.9323986861613,35.7937575652737,10.0669119381628,72.1935922626344,12.6148139797565,-11.6426267278848,4.5798311605867
6.34986169400638,-17.6974209114378,20.4067507047159,1.22052390211948,-23.3261504019525,35.0568456684562,10.6339503748171,72.8661483047247,11.9012625700612,-10.6824103913178,5.52061775072954
6.98090718550054,-17.6528731631727,20.3621508794911,1.29620559818407,-23.6876416851223,34.3031758960635,11.1712540536692,73.5731513277776,11.1682080941405,-9.71243549020598,6.44072918837125
7.62837332823526,-17.6122552224912,20.3153896887507,1.37828544550076,-24.0169392442481,33.5331313880173,11.6767224934224,74.3131229204225,10.4161479816571,-8.73413803015065,7.33953051002045
8.28936508028095,-17.5748802956552,20.2666470703739,1.46627225059631,-24.314388119948,32.7470657648707,12.1485294368086,75.0843613193982,9.64575697214759,-7.74854026343805,8.21696088047664
8.96089769641914,-17.5400195011262,20.2160814183772,1.55964278791609,-24.5805715086009,31.9453204966232,12.585136978928,75.8849368123255,8.85791322154488,-6.75641387411437,9.07329108805471
9.6399293042344,-17.5069158676636,20.1638191371638,1.65785002009342,-24.8162695913029,31.1282445711619,12.9853053949675,76.7126864150486,8.05372621124813,-5.75844430737518,9.90887964221927
10.3233934727506,-17.4747985273189,20.1099444880778,1.76033099163919,-25.0224186377054,30.296215507302,13.3480980842327,77.5652087973847,7.23456510633007,-4.75538551913666,10.7239421792776
11.0082309133504,-17.4428968151072,20.0544899597915,1.86651420866226,-25.2000715076996,29.4496606977564,13.6728812138346,78.4398607084211,6.40208561817309,-3.74819645074183,11.5183468726727
11.6914195237964,-17.4104539994263,19.9974273896099,1.9758263418329,-25.3503605157301,28.5890780618414,13.9593178506322,79.3337563792262,5.55825294318303,-2.7381526071736,12.2914463493106
12.3700020663198,-17.3767403863291,19.9386600576322,2.08769811937215,-25.4744634552,27.7150550335331,14.2073565950128,80.2437715246675,4.7053580706972,-1.72692811271713,13.0419543521591
13.0411108651894,-17.3410655624208,19.8780159747343,2.20156931231942,-25.5735734052469,26.8282850027364,14.4172149563115,81.166553590688,3.84602476077973,-0.716645496818511,13.7678731007687
13.7019890201443,-17.3027895609079,19.8152425900118,2.31689275660965,-25.6488727638451,25.9295804594601,14.5893579256491,82.0985397663312,2.98320483293275,0.290107762351197,14.4664749649579
14.3500077596226,-17.2613327513781,19.750003150017,2.43313740521527,-25.7015117767594,25.0198822542537,14.7244724034269,83.0359839794803,2.120160080333,1.29029522139135,15.1343396389039
14.9826797000816,-17.2161842688767,19.6818749432627,2.54979045519608,-25.732591666853,24.1002645756184,14.8234383240364,83.9749936166066,1.26043007941827,2.2804776729524,15.7674454480018
15.5976679315842,-17.1669088178513,19.6103496508328,2.66635864254866,-25.7431523148162,23.1719354463029,14.8872974864564,84.9115760673245,0.407786298320363,3.25688578883215,16.3613107351509
16.1927910105254,-17.1131517179847,19.5348359914204,2.78236883616242,-25.7341643006456,22.2362327437076,14.9172212398943,85.8416944387797,-0.433825922680943,4.21551415034193,16.9111785028573
16.7660241020123,-17.0546421049459,19.4546647939445,2.89736808756129,-25.7065249856264,21.2946159428305,14.9144782763297,86.7613309810929,-1.26035489729192,5.15223060456739,17.41223473562
17.3154966701817,-16.9911942572016,19.3690965544003,3.01092330432797,-25.6610582001725,20.3486539514227,14.8804038285168,87.6665559959799,-2.0677162214683,6.06289423851315,17.8598482498396
17.8394872571949,-16.9227070831782,19.2773314410788,3.12262071262923,-25.5985170095604,19.4000095456147,14.8163715436605,88.5535993547326,-2.85186868442333,6.94347504847054,18.2498177301945
18.3364160132264,-16.8491618634303,19.1785216117717,3.23206526074608,-25.5195889635344,18.4504210132445,14.7237691880066,89.4189213127838,-3.60888863923155,7.79016863889388,18.5786100909105
18.8048357331736,-16.7706183949594,19.0717856064355,3.33888009559488,-25.4249032012502,17.5016816693327,14.6039791367426,90.2592791403101,-4.33503939462163,8.59950001362325,18.8435737762418
19.2434222147318,-16.6872097272957,18.9562244861029,3.44270622192039,-25.3150387824297,16.5556179256919,14.4583643308055,91.0717862222269,-5.02683288186154,9.36841167718401,19.0431114110179
19.6509647720059,-16.5991357117076,18.8309393087942,3.54320243021212,-25.1905336490719,15.6140665803382,14.2882600616073,91.853960706315,-5.6810817275856,10.094332737524,19.1767985540643
20.0263577160841,-16.5066556059626,18.6950494695858,3.64004555351704,-25.0518936861888,14.6788519508992,14.0949716045283,92.6037614465355,-6.29494078536461,10.7752273162803,19.2454392158811
20.368593548474,-16.4100799881291,18.5477113878307,3.73293108518622,-24.8996014374804,13.7517634191072,13.8797773878979,93.3196098223161,-6.86593801928998,11.4096221250739,19.2510540272294
20.676758507095,-16.3097622345157,18.3881370022327,3.82157416140527,-24.7341241319973,12.8345338894083,13.6439370770728,94.0003969194319,-7.39199529939254,11.9966143928495,19.1968029511552
20.9500309623564,-16.2060898091592,18.2156115353328,3.90571088694964,-24.555920778055,11.9288196001309,13.3887036919424,94.645476436371,-7.87144011069625,12.5358623290588,19.0868504431768
21.1876829898293,-16.0994755962146,18.0295100120653,3.98509996120081,-24.3654481701204,11.0361816630467,13.1153386778737,95.2546444468976,-8.30300938782659,13.0275609298241,18.9261861040461
21.3890852551518,-15.9903494845188,17.8293120596401,4.05952454294399,-24.1631657279038,10.1580696459586,12.8251287260982,95.8281077476105,-8.68584669792227,13.4724061813479,18.7204173548736
21.553715146417,-15.8791503880419,17.614614575049,4.12879427470746,-23.9495391450561,9.2958074525118,12.5194030911615,96.3664429241291,-9.01949386619876,13.8715506500614,18.4755520051404
21.6811678901867,-15.7663188580876,17.3851419197103,4.19274736973045,-23.7250428711683,8.45058169411122,12.1995501724415,96.8705484845275,-9.30387794107112,14.2265531710973,18.1977876954014
21.7711702000162,-15.6522904125306,17.1407533861245,4.25125264980975,-23.4901614892369,7.62343269060159,11.8670322022864,97.3415924560067,-9.53929419263901,14.5393249506093,17.8933223997355
21.8235958404948,-15.5374896734157,16.8814477762415,4.30421141560731,-23.2453900849691,6.81524817802425,11.5233970052129,97.780957752844,-9.72638567434277,14.8120739662125,17.5681960870524
21.8384823531942,-15.4223253676541,16.6073650314265,4.35155903682199,-22.9912337362337,6.0267597424336,11.1702859546327,98.1901874364722,-9.86611977436177,15.0472491567119,17.228169003314
21.8160480893941,-15.3071862091753,16.3187849538173,4.39326616810499,-22.7282062798534,5.25854194017885,10.8094374496372,98.5709317371192,-9.95976214140877,15.2474855902444,16.8786375319178
21.7567086315519,-15.1924376479784,16.0161231521202,4.42933952372589,-22.456828536189,4.51101401141717,10.442685453578,98.9248984198401,-10.0088483751679,15.4155516407396,16.5245847386194
21.6610916624249,-15.0784194438533,15.6999244262169,4.45982217406368,-22.1776261878736,3.78444404846464,10.071952864676,99.2538077767379,-10.0151539065719,15.5542992529154,16.1705598258087
21.5300493566762,-14.9654440004149,15.370853871224,4.48479335520188,-21.8911275178891,3.07895544437649,9.69923971590089,99.55935322521,-9.98066254282226,15.666618616478,15.8206789061461
21.3646674220929,-14.853795378998,15.0296860316024,4.50436780687972,-21.597861213935,2.39453541764377,9.32660642110749,99.8431681970906,-9.90753420651889,15.7553987868496,15.4786386929159
21.1662700023027,-14.743728903374,14.6772924691258,4.51869467376132,-21.2983544380599,1.73104538378447,8.95615249316339,100.106799718685,-9.79807244736616,15.823495709545,15.147734790317
20.9364197654479,-14.6354712664241,14.3146281253899,4.52795602134812,-20.9931313379631,1.08823292353418,8.58999135339366,100.351688807689,-9.65469233468671,15.8737086568223,14.8308771696653
20.6769126387252,-14.5292210580301,13.9427168624846,4.53236503101877,-20.6827121360226,0.46574508010571,8.23022202424729,100.579157552194,-9.47988933578569,15.9087654217528,14.5305970215377
20.3897668023405,-14.4251496457509,13.5626365586947,4.53216394716701,-20.3676128768587,-0.136857299110691,7.87889864100105,100.790402495495,-9.27620974468608,15.9313158961683,14.2490412844982
20.0772057241567,-14.3234023506707,13.1755041233948,4.52762185104354,-20.0483458542087,-0.72008448404104,7.53799882478164,100.986493737547,-9.04622315522261,15.9439329010708,13.9879535405581
19.7416351949039,-14.22409986558,12.7824607774602,4.51903232941369,-19.7254206858291,-1.28450238526836,7.20939201865025,101.168378991651,-8.79249738555739,15.9491182910146,13.7486424270839
19.3856145110019,-14.1273398609398,12.3846579200841,4.50671109185428,-19.3993459692538,-1.83071705118581,6.89480889336463,101.336891718019,-8.51757617332063,15.9493114793731,13.5319410366946
19.0118221463956,-14.0331987197401,11.9832438661828,4.49099357036087,-19.0706314300194,-2.3593595354329,6.59581287914062,101.4927624069,-8.22395988509696,15.9468968470638,13.3381627226619
18.6230164554272,-13.9417333404261,11.5793516888191,4.47223251231215,-18.7397904577926,-2.87107153627355,6.31377478212155,101.636632099603,-7.91408941587189,15.9442062505175,13.1670600466016
18.2219921546681,-13.8529829506091,11.1740883403023,4.45079555676036,-18.4073429050756,-3.36649218994952,6.04985131072322,101.769067290375,-7.59033335720321,15.9435131960201,13.0177940754679
17.811533540877,-13.7669708833865,10.7685251587441,4.42706276753016,-18.0738179965021,-3.84624635584678,5.80496817689503,101.890575419123,-7.25497834963853,15.9470162369087,12.8889207204243
17.3943656108934,-13.6837062811231,10.3636898001491,4.40142408519345,-17.7397571717858,-4.31093466733673,5.57980825675985,102.001620240887,-6.91022231740633,15.9568106671662,12.7783993489974
16.9731044502457,-13.603185706644,9.9605595761054,4.37427665147848,-17.4057166719884,-4.76112554703157,5.37480509992232,102.102636454329,-6.55817007571238,15.974849369011,12.683626736791
16.5502084393208,-13.52539465737,9.56005612935692,4.34602195179303,-17.0722696816543,-5.19734930912768,5.19014187657879,102.194043089262,-6.20083066840168,16.0028953988963,12.6014969188942
16.1279319732896,-13.450308992192,9.1630413454229,4.31706271527204,-16.7400078549319,-5.62009439981991,5.02575566135449,102.276255276943,-5.84011576445112,16.0424702715673,12.5284850266547
15.7082834844594,-13.3778962922022,8.77031437396223,4.28779951187825,-16.4095420738039,-6.02980575688123,4.88134678783944,102.349694138566,-5.47783851032062,16.0948026927731,12.4607510857777
15.2929895705366,-13.3081171835414,8.38260961417497,4.25862699735966,-16.0815023069036,-6.42688519846768,4.756392875666,102.414794619088,-5.11571238271012,16.1607825562642,12.3942582701605
14.8834669469341,-13.2409266521899,8.00059550563146,4.22992977988541,-15.7565364623977,-6.81169368342667,4.65016703018969,102.47201116684,-4.75534978826736,16.2409243700485,12.3248993854598
14.4808037379033,-13.1762753758165,7.62487396453086,4.20207791443969,-15.4353081632831,-7.18455522713769,4.56175963694505,102.521821219938,-4.39826037937122,16.3353430993879,12.2486253547654
14.0857512917189,-13.1141110886798,7.25598031597188,4.17542207095044,-15.118493414966,-7.54576220667368,4.49010311648481,102.564726513097,-4.04584925634369,16.4437440103549,12.1615700161252
13.6987272555174,-13.0543799852748,6.89438359076796,4.15028846858881,-14.8067761726284,-7.8955817406199,4.43399897307054,102.601252266344,-3.69941536684253,16.5654267546642,12.0601664001306
13.3198300989848,-12.9970281585106,6.54048707718519,4.12697371666554,-14.5008428425799,-8.2342627834517,4.39214646513016,102.631944361235,-3.36015046748368,16.6993028435021,11.9412506523813
12.948864673295,-12.9420030592381,6.1946290432956,4.10573973993526,-14.2013757703773,-8.56204354532929,4.36317224307981,102.657364650695,-3.02913897803627,16.8439249036257,11.8021507656641
12.5853777860635,-12.8892549588864,5.85708357356449,4.08680897662597,-13.9090457858806,-8.87915885200616,4.34566033716937,102.678084586123,-2.70735895377235,16.9975257049943,11.6407581971021
12.2287022239071,-12.8387383990168,5.52806148993822,4.07036001464358,-13.6245038954875,-9.1858471005102,4.33818193113653,102.694677380416,-2.39568425590361,17.1580648529484,11.4555812131717
11.878007217066,-12.790413617811,5.20771134695964,4.0565237917456,-13.3483722382067,-9.48235652933165,4.33932441355837,102.707708958379,-2.09488784101469,17.323281175763,11.2457794126811
11.5323530577486,-12.744247946215,4.89612049785883,4.04538045710934,-13.0812344604663,-9.76895058439412,4.34771923728688,102.717727976938,-1.80564594083485,17.4907491207114,11.0111793372617
11.1907474773601,-12.7002171618291,4.59331622615494,4.03695698760432,-12.8236257156743,-10.0459122130074,4.36206812941492,102.725255228085,-1.52854278328276,17.6579377999026,10.7522714297312
10.8522014561908,-12.6583067788512,4.29926693344232,4.03122566459283,-12.5760225523977,-10.3135469618979,4.38116718910232,102.730772768404,-1.26407542996107,17.8222716104766,10.4701888953127
10.5157823594028,-12.6185132411591,4.01388337614318,4.02810353330895,-12.3388330101944,-10.5721847998437,4.40392840356859,102.734713149456,-1.01265828227936,17.9811915313174,10.1666693064526
10.1806626261689,-12.5808449775159,3.7370199526729,4.02745297531172,-12.1123872834027,-10.8221806320363,4.42939811765019,102.73744915019,-0.774626838256434,18.1322162452295,9.8440001029157
9.84616263726672,-12.5453232795167,3.46847605427689,4.02908351122568,-11.89692932703,-11.063913521372,4.45677202320966,102.739284430694,-0.550240360079622,18.2730021568984,9.50494949666756
9.5117868028608,-12.511982978858,3.20799750628138,4.03275490378404,-11.6926097552294,-11.2977846826053,4.4854063007119,102.740445528643,-0.33968323261805,18.4014012061408,9.15268470078476
9.17725230553828,-12.4808729270335,2.95527814228022,4.03818155163295,-11.4994803245631,-11.5242143689794,4.51482464470009,102.741075599314,-0.143064947437367,18.5155151717516,8.79067984446355
8.84251027320154,-12.452056306488,2.7099615708099,4.04503807110768,-11.3174902176387,-11.7436378233597,4.54472102569786,102.741230253427,0.0395811794850807,18.6137449940777,8.42261637122652
8.50775942317096,-12.4256108166696,2.47164320844667,4.05296588270153,-11.1464842672732,-11.9565005082882,4.57495816737785,102.740875774943,0.208300283172796,18.6948335725479,8.05227908993301
8.1734524045768,-12.401628776745,2.2398726610555,4.06158057055004,-10.9862031983435,-12.1632528528375,4.60556183654861,102.739889906163,0.363218825059366,18.757900547762,7.68345129893735
7.84029517107464,-12.3802171724599,2.01415653468087,4.07047976803694,-10.836285912243,-12.3643447556531,4.63671115042443,102.738065274811,0.504547623250432,18.8024677580281,7.31981248492456
7.50923974612931,-12.3614976563498,1.79396174919296,4.07925132785085,-10.6962737879824,-12.5602200661002,4.66872520496341,102.735115415005,0.63258460025167,18.8284743477925,6.96484199033325
7.18147070811958,-12.3456064962619,1.57871941023117,4.08748154918795,-10.5656169175604,-12.7513112330411,4.70204642387575,102.730683211246,0.747716849833564,18.8362808702445,6.6217317531598
6.85838563428437,-12.332694459965,1.36782926752113,4.09476325482997,-10.4436821325011,-12.9380342678909,4.73722111852189,102.724351481,0.850421671882602,18.8266621366977,6.29331076652878
6.54156961610597,-12.3229266208494,1.16066475401712,4.10070353523589,-10.3297626209233,-13.1207841243459,4.77487782854882,102.715655312467,0.941266271782518,18.8007889851117,5.98198331012798
6.23276381507976,-12.3164820655741,0.956578569037881,4.10493100219808,-10.2230888907362,-13.2999305641857,4.81570407403323,102.704095693503,1.02090586964065,18.7601995306438,5.6896823206747
5.93382789907178,-12.3135534749434,0.754908746689328,4.10710241776501,-10.1228408139846,-13.4758145638614,4.86042218269758,102.689153911679,1.09008001588572,18.7067608027834,5.41783855484666
5.64669613592189,-12.3143465354754,0.554985138353282,4.10690858468486,-10.0281604923768,-13.6487453153941,4.90976485252141,102.670306182493,1.1496069659237,18.6426219788075,5.16736550676259
5.37332699788358,-12.3190791262226,0.356136229611916,4.10407940436926,-9.93816570691564,-13.8189978763945,4.96445107119379,102.647037977823,1.20037603382909,18.5701607144658,4.93865940806423
5.11564644969752,-12.3279802180286,0.157696203310368,4.09838802850347,-9.85196374211684,-13.9868115201259,5.02516295170991,102.618857578895,1.24333793342443,18.4919243524971,4.73161308488032
4.87548577043788,-12.3412884219175,-0.0409878489731182,4.0896540510298,-9.7686653964244,-14.1523888261343,5.0925239764324,102.585308461569,1.27949323426681,18.4105680339987,4.5456419884357
4.65451588654835,-12.3592501283682,-0.240548673319786,4.07774570918942,-9.6873989998154,-14.3158955360991,5.16707908246742,102.545980228273,1.30987921138983,18.3287919039388,4.37972037572232
4.4541817662042,-12.3821171880197,-0.441591670569846,4.06258108740275,-9.60732425659713,-14.4774611785458,5.24927697022124,102.500517919992,1.33555553603932,18.2492796377169,4.23242543072252
4.2756422446597,-12.4101440959765,-0.644687901668285,4.04412834559197,-9.52764571750507,-14.6371804404117,5.33945497068324,102.448629662848,1.3575894072791,18.1746403764934,4.10198712867164
4.11972224325742,-12.4435846562175,-0.850367401482599,4.0224050194963,-9.44762566347796,-14.7951152359755,5.43782676444263,102.390092717247,1.37704082192664,18.1073558306204,3.98634187241688
3.98688498224337,-12.4826881195527,-1.05911292114872,3.99747645823634,-9.3665961595027,-14.9512973984242,5.54447320720039,102.324758093691,1.39494869808997,18.0497338203544,3.88318832884764
3.87723068862167,-12.5276948081241,-1.27135421563678,3.9694534700823,-9.28397001814657,-15.1057318985188,5.65933647922906,102.252553968404,1.41231850825502,18.0038689411363,3.79004436228103
3.79052502435366,-12.57883126194,-1.48746298767234,3.93848924215035,-9.19925040595188,-15.258400477725,5.78221773252714,102.1734881666,1.43011196263873,17.9716104618947,3.70430438039198
3.72625532398195,-12.6363049684315,-1.70774859291727,3.9047755884699,-9.11203883627716,-15.4092655680179,5.91277835151158,102.087649979259,1.44923913571652,17.9545370750397,3.62329669357145
