Finger Velocity,Scap_X,Scap_Y,Scap_Z,Shoulder horiz abd-adduction,Shoulder flexion-extension,Shoulder internal-external rotation,elbow flexion-extension,forearm pronation-supination,wrist flexion-extension,wrist radial-ulnar deviation
1.18674268976761,-15.8666269477364,29.3844988464665,-0.965513282285028,-18.8635184179272,40.2961935253513,8.64241097281989,79.8267320994926,19.1375281358966,-13.3310337145821,13.5165111024158
1.2675941582369,-15.7997654400531,29.3618735618665,-0.993978474095441,-19.2138485472731,40.2072098434245,8.83484340277508,80.2169824619613,18.5213005268093,-11.9335278657309,14.9748573931561
1.50278461791348,-15.730953261469,29.3335103850902,-1.02015250875061,-19.5816196073002,40.1063131529811,9.03299885050388,80.6428154109129,17.8653158716521,-10.4930688885387,16.4591156706349
1.88398342384171,-15.6605266287125,29.2993011948809,-1.04391441814417,-19.9657293992196,39.9913247045301,9.2359750781713,81.1052197625804,17.1691417133213,-9.03003238968135,17.9467772157614
2.38595921474528,-15.5888495741054,29.2591744513441,-1.06516407444656,-20.3648535337331,39.85991775339,9.44276263054296,81.6050131859503,16.4325158691308,-7.56492685780593,19.415240958676
2.98744602266848,-15.5163110867047,29.2130905520031,-1.0838175028301,-20.7774401572938,39.7096442249839,9.65224419614291,82.1428314052342,15.6553753321154,-6.11747746142023,20.8427268780418
3.67428710020245,-15.4433219411276,29.1610360277671,-1.0998013870175,-21.2017078647169,39.537965844105,9.86319548729425,82.7191194650637,14.837889210285,-4.70582381594535,22.2090715998352
4.43699184556522,-15.3703112682266,29.1030167081845,-1.11304702617502,-21.6356476159664,39.3422891625052,10.0742880281805,83.3341249090878,13.9804954624703,-3.3458943246486,23.4963453780998
5.26848685201384,-15.2977229170994,29.0390500145636,-1.1234840331799,-22.0770294587478,39.1200037678738,10.284094247839,83.9878925954307,13.0839409272495,-2.05099027988379,24.6892596280806
6.1627743966587,-15.2260116464898,28.9691565713171,-1.13103408260922,-22.5234147674304,38.8685228253199,10.4910952418884,84.6802607503241,12.1493238176296,-0.831582805950201,25.775364769743
7.11420548373427,-15.1556391678405,28.8933513582962,-1.13560502222924,-22.9721745343395,38.5853249989528,10.6936914868377,85.4108577467031,11.1781374822089,0.304698943157444,26.745063124872
8.11709670303766,-15.0870700453343,28.8116346552646,-1.13708565443778,-23.4205139959028,38.267996735352,10.8902166650457,86.1790990017245,10.1723138397992,1.35292565608919,27.5914774117242
9.1655349222331,-15.0207674433739,28.7239830500872,-1.13534147294331,-23.8655035591243,37.9142738689475,11.0789545919645,86.9841833395543,9.13426451345476,2.31061540992338,28.3102213826563
10.253287371755,-14.9571887014705,28.6303407932865,-1.13021160376542,-24.3041156354253,37.5220815342846,11.2581590389451,87.825088186717,8.06691736349773,3.17741305527702,28.8991170311313
11.3737735677051,-14.8967807113702,28.5306117837604,-1.12150714935089,-24.7332666160919,37.0895714408426,11.4260760297731,88.7005630731421,6.97374589182405,3.95473729713478,29.3578953703646
12.5200753431811,-14.8399750706377,28.4246524640803,-1.10901107411475,-25.1498628703886,36.6151556769774,11.5809679805226,89.6091211109947,5.85878889830916,4.64542298316598,29.6879079163921
13.6849714445121,-14.7871829894346,28.312265887884,-1.09247970464817,-25.550849352719,36.0975363506345,11.7211388787505,90.5490284135701,4.72665783853205,5.25337787614291,29.8918659242421
14.8609885058497,-14.7387899328646,28.1931971934833,-1.07164585308904,-25.9332592030112,35.5357305350748,11.8449595869657,91.5182917817931,3.58252957409671,5.78326630483432,29.9736155389582
16.0404631171925,-14.6951499917718,28.0671306744077,-1.04622351021586,-26.2942626332005,34.9290901600274,11.9508923265601,92.5146453949286,2.43212262786234,6.24022700962809,29.9379500466323
17.2156113261161,-14.6565799920863,27.9336885812697,-1.01591399602421,-26.6312134124149,34.2773166652332,12.0375134594088,93.5355376540565,1.28165564875145,6.62962911901213,29.7904555660046
18.378602859861,-14.6233533769469,27.7924317273841,-0.98041339956513,-26.9416913826811,33.5804704032819,12.1035338284035,94.5781196987197,0.137787527565097,6.95686808925841,29.5373837169498
19.5216379325271,-14.5956939258017,27.6428619109053,-0.939421086935926,-27.2235396409154,32.838974927254,12.1478161274725,95.6392374088929,-0.992460560582344,7.22720208233578,29.1855437645407
20.6370248772401,-14.5737694091266,27.4844261128603,-0.892649008228916,-27.4748952966335,32.053616412147,12.1693890229432,96.7154288801266,-2.10180003983651,7.44562818023055,28.7422070957952
21.7172571050792,-14.5576853145262,27.3165223838285,-0.839831494189955,-27.6942130403302,31.2255385288333,12.1674580159047,97.8029293874177,-3.18278474773519,7.61679675023025,28.2150182137899
22.755088090776,-14.5474788168808,27.1385072918627,-0.780735204768811,-27.8802811122378,30.3562331135231,12.1414132910493,98.8976857073721,-4.22793291323174,7.74496110355522,27.6119082730904
23.7436032471335,-14.5431131981225,26.9497047706527,-0.715168877031289,-28.0322296190588,29.4475269595185,12.0908350109622,99.9953813342615,-5.22985787893098,7.83395841181034,26.9410090964991
24.6762876908883,-14.5444729477762,26.7494161797142,-0.642992520392262,-28.1495314809885,28.5015650127707,12.0154966594102,101.091473606335,-6.18140364232149,7.88721684049031,26.2105672643337
25.5470890305321,-14.5513597913732,26.5369313670402,-0.564125722865683,-28.231996579668,27.5207901939104,11.9153670941466,102.181243078266,-7.07578095158118,7.90778320807294,25.4288590425749
26.3504744256817,-14.5634898987309,26.3115405088978,-0.478554760673755,-28.2797599019788,26.5079200137401,11.7906119292193,103.259854681593,-7.90669952941889,7.89836528214546,24.6041075326553
27.0814812801028,-14.5804925164039,26.0725464913213,-0.386338241632781,-28.2932646251344,25.4659201112789,11.6415947313574,104.32242937627,-8.66849201562631,7.86138307418677,23.7444035230569
27.7357610374768,-14.601910246632,25.8192775930835,-0.28761105932318,-28.2732411661373,24.3979748329678,11.4688783054625,105.364124194784,-9.35622540656167,7.7990241118108,22.8576312448266
28.309615651053,-14.6272011579441,25.5511002290731,-0.182586492289531,-28.2206832333259,23.3074549935332,11.2732260958773,106.380217897377,-9.96579611279722,7.71329853150272,21.9513997756942
28.8000263959046,-14.6557428617665,25.2674315129133,-0.0715563510283805,-28.136821882432,22.197883016457,11.055603479981,107.366198960656,-10.4940052476942,7.60609081374256,21.0329803869177
29.2046747861624,-14.6868386292159,24.9677513946709,0.0451108494113729,-28.0230985040678,21.0728957465892,10.8171785074574,108.317852354962,-10.9386114046519,7.47920595513305,20.1092498176095
29.5219554500424,-14.7197255580568,24.6516141233558,0.166973639643478,-27.8811375594246,19.9362053539185,10.5593214615719,109.231341540708,-11.2983589834724,7.33440874080975,19.1866393589195
29.7509809035793,-14.7535847354897,24.3186587800411,0.293523150636691,-27.7127197413164,18.7915588902226,10.2836025013182,110.103282315998,-11.5729810758691,7.17345547560218,18.2710897357735
29.8915782507025,-14.7875532795651,23.9686186341116,0.42419029614959,-27.5197560773122,17.6426971975468,9.99178659601392,110.930805543396,-11.7631769851758,6.99811802517454,17.3680120383754
29.9442779236564,-14.8207380801893,23.6013290977725,0.558354356079671,-27.3042633252287,16.493313979933,9.68582499540772,111.711606328975,-11.8705655850959,6.81020032553621,16.4822553004285
29.9102946646683,-14.8522309988126,23.2167340924275,0.695352693986072,-27.0683408575373,15.347015925174,9.3678425918541,112.443977876105,-11.8976168499871,6.61154768613663,15.6180816544416
29.7915010379542,-14.8811252241719,22.814890690984,0.83449131572873,-26.8141491072101,14.2072847951059,9.04012072108577,113.126828947011,-11.8475649335445,6.40404928187771,14.7791502315375
29.5903938510084,-14.9065324224676,22.3959719577086,0.975055964993866,-26.543889562018,13.0774423874107,8.70507519976129,113.759684596438,-11.7243070444789,6.18963423274201,13.9685110516553
29.3100539556912,-14.927600268592,21.9602679671204,1.11632345240627,-26.2597862458099,11.96061920592,8.36522968965095,114.342670553126,-11.5322929822337,5.97026163461772,13.1886100347701
28.9540999924054,-14.9435299058824,21.5081850407709,1.25757292154701,-25.9640686025503,10.8597275578343,8.02318478513539,114.876482274725,-11.2764104854825,5.74790486810922,12.441305941229
28.5266367336508,-14.9535928609797,21.0402432909577,1.39809676274939,-25.6589556852052,9.77743962853036,7.68158351796882,115.362340254853,-10.9618714712836,5.52453051236871,11.7278995269413
28.032198774868,-14.9571469421795,20.5570725994521,1.53721089475842,-25.3466415351802,8.71617088103355,7.34307423880065,115.801933597264,-10.5941038056054,5.30207225536573,11.0491745123788
27.4756904085958,-14.9536506748497,20.0594071849575,1.67426414904245,-25.0292816201592,7.67806890747214,7.01027205090022,116.197354188814,-10.1786524978078,5.08240032805506,10.4054491769434
26.8623225998665,-14.9426758707169,19.5480789265825,1.808646513554,-24.7089801894068,6.6650076421422,6.68572012592434,116.551024006106,-9.72109323864038,4.86728719013173,9.79663658214258
26.1975480533047,-14.923917979186,19.0240096177958,1.93979602157488,-24.3877784154211,5.67858664400791,6.37185231507893,116.865618186538,-9.22696010315752,4.65837044569753,9.22231068382615
25.4869954220029,-14.8972039195557,18.4882023326135,2.06720410864159,-24.0676432216592,4.72013498238224,6.0709584693023,117.143986488475,-8.70168812206748,4.45711425170029,8.68177500582833
24.736403751107,-14.8624971414764,17.941732093565,2.19041931131225,-23.7504567418677,3.79071912448812,5.78515378676255,117.389075663098,-8.15057039414894,4.2647707790225,8.17413020269601
23.9515582711976,-14.8198997135423,17.38573603127,2.30904924741414,-23.4380064053206,2.89115413612868,5.51635331413436,117.603855070223,-7.57872856086928,4.0823435523455,7.69833680686757
23.1382286541217,-14.7696513049911,16.8214032099885,2.42276089066591,-23.1319756834391,2.02201746806429,5.26625245462176,117.791247606212,-6.99109484930679,3.91055465291451,7.25326977401124
22.3021108132942,-14.7121250078479,16.2499642632933,2.5312792200364,-22.8339355633389,1.18366460356634,5.03631400408213,117.954067694626,-6.39240352135478,3.74981774189615,6.83776210963571
21.4487732685797,-14.6478200463416,15.6726809464704,2.63438437840991,-22.5453368320555,0.376245877656871,4.8277618747358,118.094967739832,-5.78718941635906,3.60021863109682,6.45063583407258
20.5836090003849,-14.577351532567,15.0908356724869,2.73190751872698,-22.2675032565228,-0.400276158026619,4.64158130780772,118.216394075132,-5.17979129148838,3.46150473263013,6.09071972810637
19.7117935873627,-14.5014375420968,14.5057210594541,2.82372555533426,-22.0016257226841,-1.14610935910023,4.47852505860664,118.320553061853,-4.57435779812035,3.33308422653231,5.75685456989809
18.8382502573068,-14.4208838848982,13.9186294865874,2.90975507652837,-21.7487573574394,-1.8616150207765,4.3391247857291,118.409387628177,-3.97485414060683,3.21403526966629,5.44788777448889
17.9676222832,-14.3365670201957,13.3308426436551,2.98994570725944,-21.509809620092,-2.54729161650674,4.22370669507248,118.484564191926,-3.38506772096099,3.10312510364263,5.16266032084192
17.1042529295228,-14.2494156031855,12.7436210725091,3.06427323132309,-21.2855493364261,-3.20375943112837,4.13241036936416,118.547469600165,-2.80861137376309,2.99883855410671,4.89998946541707
16.2521729032223,-14.1603911634831,12.1581937327088,3.13273278666718,-21.0765966599027,-3.83174618894701,4.06520964661297,118.599217440562,-2.24892313962162,2.89941515594637,4.6586509289828
15.4150949962809,-14.0704684121362,11.5757476600551,3.19533243762892,-20.8834239634167,-4.43207370708457,4.02193439773811,118.640662829131,-1.70926190347732,2.80289396125323,4.43736401115167
14.5964153311366,-13.9806156646607,10.9974178123629,3.25208740419994,-20.7063556735708,-5.00564554575334,4.0022921020959,118.672424554891,-1.19269861563808,2.7071649543831,4.23478249242282
13.7992203458266,-13.8917758538903,10.4242772080978,3.30301518622354,-20.5455690505337,-5.55343558018895,4.00588823381523,118.694913272431,-0.702103191552134,2.61002588500718,4.04949331920314
13.0262983926851,-13.8048485858868,9.85732746723136,3.34813175780687,-20.4010958944187,-6.07647738620543,4.03224464397457,118.708364294111,-0.240127522376819,2.50924321611434,3.88002405683061
12.2801545829543,-13.7206736608238,9.29748986732993,3.38744893155973,-20.2728251353583,-6.57585431133365,4.08081533182254,118.712873459629,0.190814699088885,2.40261575485566,3.72485907610078
11.5630273001807,-13.6400164355973,8.74559703439636,3.42097291785579,-20.1605062534859,-7.05269009267498,4.15099921303497,118.708434557423,0.588570432548552,2.2880393842857,3.58246353302006
10.8769046393001,-13.5635553448311,8.20238539672549,3.44870404380045,-20.063753488005,-7.50813987988356,4.24214968856939,118.694976833143,0.951270989385254,2.16357115144234,3.45131350010773
10.2235389205151,-13.4918718232355,7.66848853937994,3.47063755348737,-19.9820508330227,-7.94338152916468,4.35358098216431,118.672401231889,1.27735586906652,2.02749081414668,3.32993016440018
9.60445739875006,-13.4254427898815,7.1444316037638,3.48676538030135,-19.914757871534,-8.35960705277441,4.48457135228455,118.640614167822,1.56559559779839,1.87835783586077,3.2169158354036
9.02096737336938,-13.3646357717284,6.63062687708268,3.49707875700756,-19.8611165517224,-8.75801413579134,4.63436340681588,118.599557780965,1.81511244992669,1.7150617736239,3.11098957358944
8.4741541478686,-13.3097066660806,6.12737070774731,3.50157150715305,-19.8202590495145,-9.13979766499715,4.80216186417015,118.549235814552,2.02539799096891,1.53686405374242,3.01102048815926
7.96487076220107,-13.2608000706694,5.63484186453219,3.50024384121745,-19.7912168830698,-9.50614125196494,4.98712921500629,118.489734424732,2.1963264701586,1.34342930055587,2.91605707783373
7.49371919921835,-13.2179520431902,5.1531014302369,3.49310646348249,-19.7729314459707,-9.85820877255087,5.18837984253387,118.421237423159,2.32816318804491,1.13484469836743,2.82535132006956
7.06102391791032,-13.1810950888621,4.68209428736617,3.48018478354258,-19.764266101423,-10.197135986681,5.40497325097514,118.34403565669,2.42156705919569,0.911626320325453,2.7383764973089
6.66680010016024,-13.150065120102,4.22165221739461,3.46152302450365,-19.764019923228,-10.5240223442332,5.63590712481214,118.258530447112,2.47758668876922,0.674711899459079,2.65483798364408
6.31072080392252,-13.1246100942757,3.77149859782649,3.43718803180546,-19.7709430774963,-10.8399231214875,5.88011099054944,118.165231242352,2.4976494041855,0.425440067671095,2.57467646124895
5.99208899710442,-13.1044000166794,3.33125464251762,3.40727261201004,-19.7837537173489,-11.1458420629893,6.13644127194025,118.064747857458,2.48354285256187,0.16551659096624,2.4980633624301
5.70982169921743,-13.0890379927048,2.90044709231394,3.3718982660686,-19.8011561247072,-11.4427247217598,6.4036785109493,117.957777892292,2.43738901104079,-0.103031419191215,2.42538875330933
5.46245355483934,-13.0780720193108,2.47851722755782,3.33121722156182,-19.8218596960234,-11.7314526938945,6.68052746268192,117.845090085872,2.36161076712542,-0.377911901949671,2.35724232663642
5.24816557367268,-13.0710072172446,2.06483104208651,3.28541370889981,-19.8445982497034,-12.012838928788,6.96562065894062,117.727504492594,2.25889159283328,-0.656632980011085,2.29438855308344
5.06484136990771,-13.0673182203794,1.65869038974691,3.23470446450056,-19.8681490472261,-12.2876242615097,7.25752587142148,117.605870439592,2.13212922147814,-0.936574482283331,2.23773726559465
4.91014853276525,-13.0664614562047,1.25934489081303,3.17933847801931,-19.8913508794962,-12.5564752613146,7.55475769588832,117.48104325107,1.98438459257257,-1.21506303989952,2.18831098027899
4.78163788779154,-13.0678870705955,0.86600436952355,3.11959602963465,-19.9131205822342,-12.8199834259126,7.85579323457406,117.35386071223,1.8188276182845,-1.48944754742643,2.14721010760598
4.67684973562497,-13.071050269503,0.477851585644602,3.05578708493077,-19.9324674093726,-13.0786656820476,8.15909159484554,117.225120199831,1.63868151808007,-1.75717156193751,2.11557694340302
4.59341473584828,-13.0754218708255,0.0940550222340933,2.98824912656799,-19.9485048023605,-13.3329660871474,8.46311666964482,117.095557333347,1.44716755749496,-2.01583924398037,2.09455903124824
4.52913823942681,-13.0804978836341,-0.286218499412557,2.91734450388271,-19.9604592304741,-13.5832585744121,8.76636243743964,116.965826901109,1.24745201625382,-2.26327175305908,2.08527222483726
4.48206005036174,-13.0858079608146,-0.663791587861275,2.84345737666694,-19.9676759272403,-13.82985055278,9.06737982955708,116.836486690205,1.04259710811474,-2.49755157548846,2.08876360109072
4.45048579855885,-13.0909226036683,-1.03946462099907,2.76699032034478,-19.969621499641,-14.0729871634405,9.3648040733134,116.70798470134,0.835517384635202,-2.71705303314602,2.10597431964638
4.43299026951278,-13.0954590298531,-1.41400483050255,2.68836064905954,-19.9658835320958,-14.3128559986089,9.65738134163109,116.580650070736,0.628942879926508,-2.92045811901407,2.13770260744854
4.4283964004763,-13.0990856477248,-1.78813630069232,2.60799650530407,-19.9561674394433,-14.5495921000316,9.94399352773756,116.454687865406,0.425389900600394,-3.10675772704962,2.18456724819826
4.4357358677965,-13.1015251116752,-2.16253104958365,2.52633276371414,-19.9402909345001,-14.783283074589,10.2236800155427,116.330177780956,0.22713995554738,-3.275239189684,2.24697222844868
4.45419824059026,-13.1025559662113,-2.53780135035115,2.44380680095431,-19.9181765550193,-15.0139741952353,10.4956554351723,116.207076661762,0.0362268941426802,-3.42546174055351,2.32507348685546
4.48307573063518,-13.1020129223871,-2.914493429156,2.36085418756921,-19.889842728673,-15.2416733949167,10.7593225818979,116.085224680834,-0.145568070062596,-3.5572220599833,2.41874899390614
4.52170985653316,-13.0997858479853,-3.29308264303834,2.27790435773529,-19.855393839257,-15.4663561009148,11.0142799217008,115.9643549523,-0.316714091241072,-3.67051243573932,2.5275736211675
4.56944509075985,-13.0958175884922,-3.67397020421968,2.19537630970358,-19.815009707574,-15.687969890373,11.2603233765335,115.844106293906,-0.475922052597166,-3.76547428050168,2.65080039507925
4.62559298805023,-13.0901007638955,-4.05748147770095,2.11367438530833,-19.7689348395854,-15.9064389720704,11.497442348227,115.724038805582,-0.62213058386223,-3.8423497881805,2.78734972312647
4.68940861278299,-13.0826737035433,-4.44386583855332,2.03318417278494,-19.7174677358566,-16.1216685139384,11.7258101890233,115.603651879938,-0.754487843253475,-3.90143439457932,2.93580800973928
4.76007949164154,-13.0736156887603,-4.83329803393986,1.95426857516279,-19.660950501202,-16.3335488394604,11.9457695537118,115.482404208608,-0.872330192741205,-3.94303246173194,3.09443676323354
4.83672598717806,-13.0630416738954,-5.22588095271792,1.87726408851286,-19.5997589403267,-16.541959509204,12.1578132646281,115.359735292814,-0.97515887171597,-3.96741826417954,3.26119287109627
4.91841103544429,-13.0510966534664,-5.62164966377164,1.80247734033414,-19.5342932761872,-16.7467732879641,12.3625614749566,115.235087909734,-1.06261572389162,-3.97480395368099,3.43376022400669
5.00415666270888,-13.0379498364797,-6.02057654643228,1.73018194564255,-19.4649695869693,-16.9478599757533,12.5607360208656,115.107930935618,-1.13445896794114,-3.96531574462335,3.60959232351092
5.09296456713239,-13.0237887783019,-6.42257730635194,1.66061574294033,-19.392212028278,-17.1450900564193,12.7531329096365,114.977781891444,-1.19053993042147,-3.93897911557863,3.78596493690513
5.18383824160363,-13.008813605932,-6.82751764944566,1.59397847143804,-19.3164458896881,-17.3383380982066,12.9405939055623,114.844228566155,-1.23078158078551,-3.89571338061603,3.9600373049934
