Finger Velocity,Scap_X,Scap_Y,Scap_Z,Shoulder horiz abd-adduction,Shoulder flexion-extension,Shoulder internal-external rotation,elbow flexion-extension,forearm pronation-supination,wrist flexion-extension,wrist radial-ulnar deviation
0.907648940400404,-21.9371142570804,26.4056718719358,4.21221578602723,-4.33518026047853,45.632964904271,-6.66947276276425,70.4253736923857,23.3840524570576,-14.6115645209791,7.7987170993998
1.05076790647542,-21.9500204458738,26.3752638101894,4.22668598562683,-4.29481392400801,45.6810944800312,-6.66410981642957,70.3692527656782,23.4029154951754,-15.4928025932313,6.75766375222805
1.2032958053686,-21.9612765274461,26.3449502622445,4.24082854032113,-4.2568334156613,45.7349074677245,-6.6607995925243,70.3199571478508,23.4265080056255,-16.4524372086271,5.64042812280968
1.36449323862826,-21.970771437652,26.3146980533738,4.25469849648255,-4.22133826312107,45.7946691460708,-6.65964507604868,70.2783358388978,23.4539377664786,-17.4890049516006,4.45048479546682
1.53345217140811,-21.9784259562998,26.2844418325294,4.26838171914711,-4.18833955321686,45.8605998406354,-6.66073048214905,70.2451418864518,23.4841083866419,-18.5998538426135,3.19247803782384
1.70909748218496,-21.9841940865005,26.254084798092,4.28199369711219,-4.15775702988515,45.9328666413041,-6.66412110291662,70.2210165342093,23.5157285776757,-19.7810932514002,1.87222918022993
1.89019274486194,-21.9880635212085,26.223500442226,4.29567737318931,-4.12941851135509,46.0115751810543,-6.6698632866015,70.2064752515074,23.5473264635188,-21.0275789753921,0.496709663765887
2.07535000339834,-21.9900551610718,26.1925353134489,4.30960004248416,-4.10306159558436,46.0967616255254,-6.67798447463507,70.2018958710366,23.5772687289486,-22.3329403801207,-0.926025883334629
2.26304335256714,-21.9902216698353,26.1610127647036,4.32394939105426,-4.07833756711897,46.1883850255288,-6.68849322574011,70.207509007365,23.6037842796953,-23.6896544060636,-2.38695020777702
2.45162613207286,-21.9886450757732,26.1287376208143,4.33892877396628,-4.05481737233737,46.2863201850934,-6.70137916425844,70.223390878078,23.6249919739152,-25.0891681554251,-3.87621837629038
2.63935150386637,-21.9854334501548,26.0955016661727,4.35475185502339,-4.03199949295142,46.390351197544,-6.71661280093094,70.2494586037566,23.638931888296,-26.5220679199609,-5.38336419566211
2.82439612970719,-21.9807167170303,26.0610898216473,4.37163675011573,-4.0093195190437,46.5001658033078,-6.73414518786608,70.2854680233017,23.6435995013563,-27.9782882990751,-6.89753119992872
3.00488660715902,-21.9746416730034,26.0252868497488,4.38979983221711,-3.98616120116285,46.6153507268143,-6.75390738450682,70.3310140275269,23.6369821090299,-29.447351018353,-8.40772746675409
3.17892826338994,-21.9673663210108,25.9878844002235,4.40944936832176,-3.96186874396603,46.7353881551315,-6.77580972685857,70.3855333860549,23.617096730973,-30.9186197909807,-9.90309045370037
3.34463585181487,-21.9590536476364,25.9486881861439,4.43077916693781,-3.93576008995121,46.8596535247679,-6.79974090643199,70.4483100180956,23.5820287179813,-32.381555633423,-11.3731462920377
3.50016565020776,-21.9498649978358,25.9075250650609,4.45396241915227,-3.90714092989803,46.9874147814169,-6.82556687685062,70.5184826325708,23.529970229655,-33.8259568536518,-12.8080479348955
3.64374842320989,-21.9399532227537,25.8642497922395,4.47914591669988,-3.87531916608758,47.1178332670726,-6.85312961484376,70.5950546327247,23.4592577155524,-35.2421695884137,-14.1987783321288
3.77372268944151,-21.9294557944834,25.8187512135646,4.50644482684282,-3.83961954451054,47.2499663686016,-6.88224577040882,70.6769061415443,23.368407502461,-36.6212580460447,-15.5373081603254
3.88856772547719,-21.9184880951629,25.7709576730429,4.53593819624463,-3.79939816224749,47.3827720331265,-6.91270525139673,70.7628079567158,23.2561485692635,-37.955127987958,-16.8167020483457
3.98693574705509,-21.9071370953863,25.7208414227402,4.5676653439554,-3.75405654587886,47.5151152211967,-6.94426980289149,70.8514371903299,23.1214515891179,-39.2366017584757,-18.031172019661
4.06768273274154,-21.895455636691,25.6684218425857,4.60162328584711,-3.70305498747074,47.645776329199,-6.97667166159342,70.9413942936063,22.9635533487722,-40.4594476342928,-19.1760813256456
4.12989739680326,-21.8834575229527,25.6137673065728,4.63776530817303,-3.64592481873785,47.7734615662707,-7.00961238831691,71.0312211156375,22.7819757254488,-41.6183698238968,-20.2479054024069
4.172927875183,-21.871113604623,25.5569955723837,4.67600077625878,-3.58227930382367,47.8968152178938,-7.04276200568643,71.1194196029051,22.5765385131854,-42.7089677535437,-21.2441590137278
4.19640575874625,-21.8583490081143,25.4982726228378,4.71619622653861,-3.51182283874543,48.0144336708017,-7.07575859133765,71.2044707176314,22.3473655356513,-43.727674257708,-22.1632996780128
4.20026718679422,-21.8450416224484,25.4378099474441,4.75817774778873,-3.43435816204111,48.1248810152277,-7.10820849682812,71.2848531404826,22.0948836519546,-44.6716821036487,-23.0046173704261
4.18477079348455,-21.8310219107464,25.3758603166648,4.80173461264556,-3.34979130690529,48.2267059845967,-7.13968737476425,71.359061328137,21.819814448838,-45.5388671988356,-23.7681195132517
4.15051236769049,-21.8160740702502,25.3127121643998,4.84662407558237,-3.25813406134009,48.3184599443769,-7.16974219583138,71.4256225203923,21.5231586130157,-46.3277151690355,-24.4544187203904
4.09843612302611,-21.7999385251536,25.2486827495502,4.89257721011113,-3.15950375353965,48.3987156054869,-7.19789441797392,71.4831123358914,21.2061731881612,-47.0372560648786,-25.064628937509
4.0298424483996,-21.7823157025748,25.1841103121435,4.93930561731369,-3.05412025105313,48.4660861138505,-7.22364442828033,71.53016865868,20.8703421385308,-47.6670100349253,-25.6002737684831
3.94639187415628,-21.7628710120984,25.1193454744853,4.98650880155577,-2.94230015887671,48.519244151581,-7.24647731453863,71.5655035947875,20.5173408613486,-48.2169450970973,-26.0632090803379
3.85010467804563,-21.7412409214082,25.0547421661424,5.03388197968875,-2.82444832266638,48.5569406709447,-7.26586994239678,71.5879133616573,20.1489955092066,-48.6874467557286,-26.4555605331888
3.74335498004756,-21.7170399936631,24.9906483740858,5.08112406951089,-2.70104688041143,48.5780228687346,-7.28129922291206,71.5962860565701,19.7672381993607,-49.0792981824308,-26.7796755307839
3.62885723191452,-21.6898687267965,24.9273970330628,5.12794559352637,-2.57264224437873,48.5814510023833,-7.29225136302649,71.5896073283126,19.3740593961475,-49.3936689992479,-27.0380882381244
3.50964160869149,-21.6593220118519,24.8652973711937,5.17407623628953,-2.43983051709072,48.5663136599075,-7.29823180861656,71.5669640463286,18.9714589484428,-49.6321103483126,-27.2334957542891
3.38901296172567,-21.6249980078268,24.8046270081678,5.21927180841953,-2.30324193421639,48.5318411303681,-7.29877552662929,71.5275461207679,18.5613974294451,-49.7965538713832,-27.368743244569
3.27048594754669,-21.5865072153825,24.7456250682266,5.26332039730007,-2.16352497258254,48.4774165793477,-7.29345723655742,71.4706466715766,18.1457495318257,-49.8893124106838,-27.4468158041162
3.15768743385246,-21.5434815226954,24.6884865211547,5.30604752165265,-2.0213307596003,48.4025848075549,-7.28190119306558,71.3956607720312,17.7262612768767,-49.9130806038072,-27.4708349981411
3.05421773864183,-21.4955829950954,24.6333579074016,5.3473201513186,-1.87729837524261,48.3070584493249,-7.26379013713797,71.3020830029389,17.3045126647214,-49.8709339565263,-27.4440583035934
2.96346677419443,-21.4425121863864,24.5803345438364,5.38704950081975,-1.73204155918111,48.1907215415295,-7.23887306791132,71.1895040538551,16.8818871144426,-49.7663252926844,-27.3698799322589
2.88839167424593,-21.3840157628872,24.5294592495878,5.42519255203079,-1.58613723737965,48.0536304555989,-7.20697153604707,71.0576066034261,16.4595486463422,-49.6030776265716,-27.2518316670366
2.83127879920779,-21.3198932497618,24.4807225813105,5.46175230512179,-1.44011617800285,47.8960122343269,-7.16798421545351,70.9061607055437,16.0384272960595,-49.3853725469933,-27.0935824370227
2.79353047509262,-21.2500027321302,24.43406452614,5.49677679678337,-1.29445598402371,47.7182604140933,-7.12188956958252,70.7350189014632,15.6192127797913,-49.117733269233,-26.8989354902826
2.77552600835325,-21.1742653703957,24.3893775673808,5.53035696025027,-1.14957652964912,47.520928447081,-7.06874649399939,70.5441112685355,15.2023560040221,-48.8050016477263,-26.6718222180026
2.77659792021836,-21.0926686199249,24.3465110098959,5.56262343170195,-1.00583784734536,47.3047208704595,-7.00869289230116,70.333440601519,14.7880776741852,-48.4523086085714,-26.4162918840565
2.79513660500253,-21.0052680788472,24.3052764271334,5.59374243036659,-0.863540373768183,47.0704824024362,-6.94194222579091,70.1030779026097,14.376383030422,-48.0650376261663,-26.1364966807276
2.82880084975621,-20.9121879230776,24.2654540685388,5.62391085396131,-0.72292737228741,46.8191851810547,-6.86877816225299,69.8531583341328,13.9670816299584,-47.6487810563227,-25.8366716870341
2.87478523828325,-20.8136199234985,24.2268000441616,5.65335073764472,-0.584189272597051,46.5519144020592,-6.78954753053696,69.5838777653603,13.5598110885152,-47.2092893962569,-25.5211095031526
2.9300895881784,-20.7098210757816,24.1890540832712,5.68230322548675,-0.447469607093615,46.2698526540844,-6.70465186160114,69.2954900208421,13.1540637569971,-46.7524138918685,-25.1941296064723
2.9917484337294,-20.6011099080193,24.1519476482639,5.71102220099352,-0.312872180600436,45.9742632858309,-6.6145378573627,68.9883049098326,12.7492154110685,-46.2840433310559,-24.8600428124953
3.05699958877733,-20.4878615645479,24.1152121770376,5.73976771945487,-0.180469085610007,45.6664731641406,-6.51968716912109,68.6626870863796,12.3445551453876,-45.8100362957965,-24.5231115840691
3.12338956424789,-20.3705017951688,24.0785872278658,5.76879938111853,-0.0503091703213283,45.3478551911716,-6.42060588330897,68.3190557622224,11.9393157779147,-45.3361505414297,-24.1875072643676
3.18882506494956,-20.2495000063331,24.0418283098087,5.79836978097669,0.0775734191983977,45.0198109441366,-6.31781410384106,67.9578852719362,11.5327041731827,-44.8679714837522,-23.857265571756
3.25158408703601,-20.1253615532528,24.0047141967621,5.82871816789452,0.203150971826204,44.6837537848833,-6.21183599051318,67.5797064668155,11.1239309742156,-44.4108419631715,-23.5362418624779
3.31029978364236,-19.9986194677349,23.9670535426573,5.86006444177969,0.326394528736974,44.3410927613198,-6.103190567004,67.1851088827856,10.7122392809569,-43.9697954906266,-23.2280677292438
3.36392782697464,-19.8698258251412,23.9286906378827,5.89260361133912,0.447267050698159,43.9932175900924,-5.99238355529796,66.7747435854374,10.2969318307353,-43.5494950587106,-22.9361104631889
3.41170515728931,-19.7395429560465,23.8895101715449,5.92650082606465,0.565717655385361,43.6414849719834,-5.87990042887796,66.3493265469425,9.87739623654291,-43.1541793481724,-22.6634367748257
3.45310556981897,-19.6083347050167,23.8494408905351,5.96188708448837,0.681677100011262,43.2872064493856,-5.76620080773977,65.9096423619497,9.45312783568794,-42.7876178117652,-22.412781959994
3.48779577006606,-19.4767579304572,23.8084580762392,5.99885570717772,0.795054641020867,42.9316379678856,-5.65171424955492,65.4565480663224,9.02374970351834,-42.4530757145679,-22.1865254270061
3.5155942681059,-19.3453544248763,23.7665847950177,6.03745964778111,0.905736359217258,42.5759712490061,-5.53683742833271,64.9909767852917,8.58902939895914,-42.1532897904726,-21.9866731932363
3.53643463566694,-19.2146434138881,23.7238919185973,6.0777096972664,1.01358499083049,42.2213270181576,-5.42193263473601,64.5139409079647,8.14889203309483,-41.8904547534476,-21.8148476269547
3.55033406941588,-19.0851147658857,23.6804969517259,6.11957361275423,1.11844124677122,41.8687500641303,-5.30732747729983,64.0265344649226,7.70342929162382,-41.6662204750233,-21.6722843604066
3.55736777854263,-18.9572230145878,23.6365617427715,6.16297617235356,1.22012653295475,41.5192060389932,-5.19331561112226,63.5299343759006,7.25290410200952,-41.4816992292871,-21.559835962453
3.5576493726817,-18.8313822658261,23.5922891856354,6.20780012445584,1.31844691225081,41.1735798453044,-5.08015827718534,63.0254002372389,6.79775072457126,-41.3374820729882,-21.4779816866031
3.55131712926476,-18.70796202979,23.5479190468499,6.2538879698467,1.41319808597121,40.8326754075911,-4.96808641091641,62.5142723388205,6.33857017016099,-41.2336632127687,-21.4268424397054
3.53852575372113,-18.5872839918673,23.5037230691777,6.30104449244313,1.50417112962261,40.4972165936555,-4.8573030780503,61.9979676429544,5.87612100408524,-41.1698711073558,-21.4062000464053
3.51944301288952,-18.4696197104015,23.4599995124354,6.34903994072786,1.5911586969633,40.1678490406955,-4.7479860176229,61.4779735242708,5.41130577438078,-41.1453050302949,-21.4155198924177
3.49425043040247,-18.3551892090696,23.4170672942729,6.3976137554304,1.67396140591359,39.8451426489865,-4.64029011051897,60.955839155845,4.94515348373907,-41.1587758521487,-21.4539760912411
3.46314709292554,-18.2441604157586,23.3752598886118,6.44647873724785,1.75239413500082,39.5295945280277,-4.53434964104142,60.4331645254503,4.4787986895678,-41.2087498695164,-21.5204784130607
3.42635553555502,-18.1366493891128,23.3349191272557,6.49532554967408,1.8262919849219,39.2216322134612,-4.43028027174731,59.911587169826,4.01345794966513,-41.2933945951226,-21.6137003253577
3.38412865602767,-18.0327212683046,23.2963890317507,6.5438274558995,1.89551569258428,38.9216170140119,-4.32818070186251,59.392766817444,3.55040441911581,-41.4106255138626,-21.7321076101726
3.33675664778522,-17.9323918807305,23.2600097808731,6.59164519577408,1.9599563226905,38.6298473907172,-4.22813402250011,58.8783682255502,3.09094144124383,-41.5581528906371,-21.8739871317322
3.28457303374547,-17.8356299454042,23.226111898428,6.63843191943589,2.01953910367986,38.3465623094655,-4.13020881613139,58.3700425813497,2.63637596509016,-41.7335277860225,-22.0374754244214
3.22795901513839,-17.7423598150978,23.1950107299296,6.68383810786787,2.07422631875371,38.0719445374812,-4.03446007321682,57.8694079090642,2.18799257508814,-41.9341865171305,-22.2205868609561
3.16734551111588,-17.652464705308,23.1670012666108,6.72751642554209,2.1240192055054,37.8061238738305,-3.94093001493938,57.3780289841402,1.74702884854278,-42.1574929158605,-22.421241249265
3.10321244387963,-17.5657903608024,23.1423533705463,6.76912646343681,2.16895885652963,37.5491803157569,-3.8496489163666,56.8973973009011,1.31465267333444,-42.4007778740752,-22.6372907792637
3.03608501169434,-17.482149110294,23.1213074537312,6.80833933890625,2.20912614755653,37.3011471699867,-3.76063601835387,56.428911665291,0.891942067887501,-42.6613757923752,-22.8665462757861
2.96652688200986,-17.401324257894,23.1040706640246,6.84484212057756,2.24464074994415,37.0620141231557,-3.67390059859554,55.973859983699,0.479867948450019,-42.9366576563071,-23.106802714575
2.89513042531962,-17.3230747581308,23.0908136290424,6.87834204273791,2.27565931115515,36.8317302888734,-3.58944324249153,55.5334027868308,0.0792801803170292,-43.2240605695598,-23.3558639515181
2.82250429549735,-17.2471401193534,23.0816678045034,6.90857046752303,2.30237290847479,36.6102072497637,-3.50725731600495,55.1085589623932,-0.309102874568734,-43.5211136879165,-23.6115666202979
2.7492588427094,-17.1732454757838,23.0767234678378,6.93528654773514,2.32500389449928,36.3973221084326,-3.42733060255708,54.7001940760186,-0.684701237988081,-43.8254606028891,-23.8718031640311
2.67599001753962,-17.1011067593498,23.0760283927155,6.95828054032461,2.34380225546359,36.1929205495594,-3.34964703205007,54.3090115460471,-1.04707668642052,-44.134878294632,-24.1345439644571
2.60326258298107,-17.0304358902988,23.0795872347976,6.9773767207458,2.35904159591321,35.9968198978662,-3.27418840627487,53.935546817173,-1.39593280077757,-44.4472928009759,-24.3978585082614
2.53159358244012,-16.9609458950734,23.0873616510242,6.99243585003186,2.37101484929791,35.8088121394936,-3.20093601036952,53.58016456274,-1.73111198217719,-44.7607917426015,-24.6599354857744
2.46143709912367,-16.8923558554135,23.099271162306,7.00335714765459,2.38002979931546,35.6286668636845,-3.12987199316271,53.2430588442553,-2.05258978365278,-45.0736338178669,-24.919101655575
2.3931713632015,-16.8243955954562,23.1151947526512,7.01007972382462,2.38640448672603,35.4561340801964,-3.06098040221619,52.9242560728202,-2.36046693090766,-45.3842553452709,-25.1738392309991
2.3270891958766,-16.7568100218274,23.1349731779241,7.01258342689868,2.39046257419832,35.2909468734703,-2.99424777649956,52.6236205498107,-2.65495939573626,-45.6912738957997,-25.4228014590652
2.26339260808889,-16.6893630423514,23.1584119356088,7.01088906774435,2.39252874707877,35.1328238642298,-2.92966323219526,52.3408623115306,-2.93638685788897,-45.9934890329561,-25.6648259861567
2.20219209364828,-16.6218410002811,23.1852848233241,7.00505799443545,2.39292423666622,34.981471462279,-2.86721802072812,52.0755469647677,-3.20515986213825,-46.2898801779339,-25.8989455555712
2.14351078908332,-16.5540555727901,23.2153379894917,6.99519100605798,2.3919625585142,34.8365859115064,-2.80690458433796,51.8271071791387,-3.46176596130907,-46.5796016477494,-26.1243955680573
2.08729325321023,-16.485846095304,23.248294357637,6.98142661055038,2.38994555553915,34.6978551479429,-2.74871517385363,51.5948554989032,-3.70675514060106,-46.8619749691619,-26.3406180582045
2.03341820244986,-16.4170812870968,23.2838582898784,6.96393864574499,2.38715982102691,34.5649605098187,-2.69264011852147,51.3779981484521,-3.94072484371935,-47.136478636154,-26.5472616978808
1.9817141830801,-16.3476603677284,23.3217203473429,6.9429332949849,2.38387355155145,34.4375783502092,-2.63866584805912,51.1756495247281,-4.16430496043899,-47.4027355415933,-26.7441775379303
1.93197692089991,-16.2775135670644,23.3615620058738,6.91864554128794,2.38033385065589,34.3153816055923,-2.58677276918543,50.9868470891133,-4.37814317603876,-47.6604983710988,-26.9314103449968
1.88398699413226,-16.2066020427384,23.4030601940016,6.89133511984799,2.37676447888428,34.1980413681414,-2.53693310135581,50.8105663875128,-4.58289111041382,-47.9096333001452,-27.1091855768054
1.83752653201303,-16.1349172280469,23.4458915360064,6.86128204824694,2.37336402995255,34.0852284991897,-2.48910878324106,50.6457359431753,-4.77919167428073,-48.1501023856911,-27.277892252519
1.79239382877035,-16.0624796416451,23.4897362050484,6.8287818345519,2.37030450766582,33.9766153104838,-2.44324956981884,50.491251788538,-4.96766803254813,-48.3819450943647,-27.4380621971179
1.74841504154394,-15.9893371992336,23.5342813183174,6.79414048148007,2.36773028157586,33.8718773313425,-2.39929144351211,50.3459914336486,-5.14891449028815,-48.6052594617948,-27.5903463491736
1.70545246449177,-15.915563076991,23.579223836127,6.7576694168999,2.36575740839138,33.7706951727426,-2.35715545637878,50.2088271061876,-5.32348951343392,-48.8201834227276,-27.7354889919521
1.66340919566753,-15.8412531864943,23.6242729580066,6.71968048592931,2.36447331844632,33.6727564899806,-2.31674710293043,50.0786381343594,-5.49191097780745,-49.0268768711419,-27.874300869075
1.62223030345554,-15.7665233308133,23.6691520389964,6.68048113782381,2.3639368801767,33.5777580315757,-2.27795629771038,49.954322374057,-5.65465361939727,-49.2255049926975,-28.0076321627334
1.58190083276501,-15.6915061207217,23.7136000755279,6.64036993196967,2.36417886828831,33.4854077458904,-2.2406580030004,49.8348066071148,-5.81214854587837,-49.4162233629938,-28.1363462516619
1.54244115639501,-15.6163477377825,23.7573728291454,6.59963247228997,2.36520287027128,33.3954269045828,-2.20471352421018,49.7190558648332,-5.96478457071647,-49.5991652335831,-28.2612950495252
1.50390027096304,-15.5412046370187,23.8002436658465,6.55853785955626,2.36698666795886,33.3075521984776,-2.16997246608664,49.606081667826,-6.11291105110372,-49.7744313378132,-28.3832965799378
