Finger Velocity,Scap_X,Scap_Y,Scap_Z,Shoulder horiz abd-adduction,Shoulder flexion-extension,Shoulder internal-external rotation,elbow flexion-extension,forearm pronation-supination,wrist flexion-extension,wrist radial-ulnar deviation
0.956331256012423,-19.0998684841952,27.0130297227569,-0.488305322889982,-14.5611756457699,42.2121722665247,5.24311285530346,73.7830120298102,28.1520636950087,-24.2007903259051,-7.00413792377895
1.15923327612813,-19.0933410974526,27.0312696433966,-0.509073879944947,-14.6463303639071,42.1822700325764,5.26087893414475,73.8505365374276,27.899859715215,-24.1438101989613,-6.92240762082331
1.3783746369448,-19.0875724849999,27.0492426920661,-0.52831642137575,-14.7383638613697,42.1542278477284,5.28065216418763,73.9362903480468,27.6062292124426,-24.0408850682464,-6.78780656877947
1.61141094983766,-19.0828103211346,27.0666309047451,-0.54532637368701,-14.836110659572,42.1285528978173,5.3021680301294,74.0410953204014,27.2698423476657,-23.889300876047,-6.59689070795224
1.8561754865255,-19.0793129772195,27.083103985336,-0.559350033637104,-14.9381344280957,42.1057174008108,5.32508273420211,74.1654738805553,26.8898319831384,-23.687721013891,-6.34755511743297
2.1105470564439,-19.0773445830987,27.0983247969789,-0.56959679549065,-15.0427287685197,42.0861419138224,5.34897015215869,74.3096078059829,26.4658363589335,-23.4364557995422,-6.03929991465417
2.37239014030598,-19.0771692857641,27.1119550679599,-0.575251095465396,-15.1479235891595,42.0701784462064,5.37331965541544,74.4733016657214,25.998035118794,-23.1376890254735,-5.6734558958684
2.63953348430168,-19.0790447664004,27.1236611176126,-0.575485868318792,-15.2514972672047,42.0580938403247,5.39753497755979,74.6559522875228,25.4871773704405,-22.7956354742622,-5.25334508750567
2.90977007648059,-19.0832151077659,27.1331194059376,-0.56947723623605,-15.3509946330116,42.0500539158946,5.42093439211789,74.8565255264207,24.9346004730175,-22.416602951807,-4.7843509903401
3.18086947464302,-19.0899031362068,27.1400217289279,-0.556420079786991,-15.4437506342867,42.0461088850044,5.44275256623515,75.0735414548503,24.3422382949664,-22.0089356426352,-4.27387641156031
3.4505974042817,-19.0993023942236,27.1440799200259,-0.53554408089096,-15.5269193655963,42.0461805273641,5.46214454751631,75.3050688868167,23.7126177844265,-21.5828232730812,-3.73117422063579
3.71673955019932,-19.1115689282467,27.1450299712381,-0.50612978523038,-15.597508007148,42.0500515689214,5.47819241124134,75.5487298961105,23.0488428463097,-21.1499727373017,-3.16704819203652
3.97712752744124,-19.1268131015976,27.1426355438324,-0.467524211557414,-15.6524151272994,42.0573576380647,5.48991512409602,75.8017147002534,22.3545647344104,-20.7231544251554,-2.59343623599421
4.22966560979953,-19.1450916662672,27.1366908846064,-0.419155539451062,-15.6884727710955,42.0675820930777,5.49628215234313,76.0608069645556,21.6339384569965,-20.3156522004482,-2.02290447249701
4.47235714785041,-19.1664003514686,27.1270231894368,-0.360546433292638,-15.7024917680171,42.0800539332525,5.49623124591393,76.322419240863,20.8915650746264,-19.9406606471873,-1.46809460928896
4.70332983863066,-19.1906672517044,27.1134944590897,-0.291325604570198,-15.6913097187946,42.0939489313987,5.48869066044852,76.5826379045869,20.132420243725,-19.6106825524957,-0.941175689533358
4.92085917465338,-19.2177473179509,27.0960028784714,-0.211237272269214,-15.6518411361571,42.1082940609262,5.47260583926561,76.8372766111268,19.3617699102381,-19.3369812259697,-0.453352136567634
5.12338953146308,-19.2474182658948,27.0744837278042,-0.120148247062764,-15.5811292003059,42.1219752381067,5.44697027791241,77.0819369858483,18.5850746412105,-19.1291354831659,-0.0144725385899317
5.30955246581857,-19.2793782095101,27.0489098095084,-0.0180524356716065,-15.4763985422145,42.133748360944,5.41085995698836,77.3120750195387,17.8078846458168,-18.9947312795239,0.367230801638607
5.47818189826624,-19.3132453033545,27.0192913528257,0.0949273638554983,-15.3351083918306,42.1422535998563,5.36347038341941,77.5230714878263,17.0357280392236,-18.9392059999291,0.685259864853396
5.62832594728617,-19.3485596305662,26.9856753430663,0.218540426107145,-15.1550053330901,42.1460328792866,5.30415495685536,77.7103046604401,16.273995318456,-18.9658428631203,0.934833337299636
5.75925526790877,-19.3847875041318,26.9481442151675,0.352411786709085,-14.9341748016878,42.1435504794558,5.23246310435714,77.869223611169,15.5278233368939,-19.0758969868919,1.11275577168272
5.87046782504954,-19.4213282575308,26.9068138511031,0.496048530050687,-14.671090349886,42.1332166785034,5.14817642619561,77.9954205653405,14.8019822728222,-19.2688235121065,1.21720587763689
5.96169009967985,-19.4575234924149,26.8618308275743,0.648848460155525,-14.3646595865833,42.1134143380546,5.05134098295788,78.0847009040004,14.1007691723912,-19.5425726352511,1.24748024622006
6.03287478329321,-19.4926686345006,26.8133688780052,0.810110855496766,-14.0142655798499,42.0825282960216,4.94229383265206,78.1331496554184,13.4279115902084,-19.8939161094202,1.20372710551959
6.08419506232052,-19.5260265347261,26.761624565821,0.979048943169587,-13.6198023867365,42.0389773555187,4.8216819924319,78.1371935180662,12.7864846408987,-20.3187735785243,1.08669884283835
6.11603562928615,-19.556842749992,26.7068122147281,1.15480368538694,-13.1817032668516,41.9812485408559,4.6904721508371,78.0936576502341,12.1788444181285,-20.8125134856025,0.897543863478501
6.12898058257841,-19.5843620525045,26.6491582010103,1.33645845121516,-12.7009600710315,41.9079331318069,4.54994969730615,77.9998166112401,11.6065802571041,-21.3702107703555,0.637649635821868
6.12379839376839,-19.6078456521223,26.5888947753994,1.52305414489153,-12.1791323097594,41.8177637932268,4.40170597372729,77.8534389397754,11.0704877495557,-21.9868509696833,0.308540835678982
6.10142413357908,-19.6265885739128,26.526253640875,1.71360437513569,-11.6183445287998,41.7096519018617,4.24761309326028,77.6528249113496,10.5705638081887,-22.6574768807672,-0.0881698442297368
6.06293915905855,-19.6399366147557,26.4614595606535,1.90711027553447,-11.0212708716387,41.5827239552892,4.08978621440717,77.3968370440533,10.1060244503156,-23.3772792520645,-0.550785111870316
6.00954848031064,-19.6473023096187,26.3947243010083,2.1025746239876,-10.3911060952635,41.4363557538987,3.93053379456789,77.0849229395072,9.67534533423806,-24.1416369510682,-1.077490266646
5.94255605091693,-19.6481793713048,26.326241222562,2.29901495951808,-9.73152281657596,41.2702029024742,3.77229705469539,76.7171300736715,9.2763244237573,-24.9461148148905,-1.6662948736751
5.86333826761821,-19.6421551277444,26.2561808200205,2.49547545621599,-9.04661537333588,41.0842261108435,3.61758062468936,76.2941122064864,8.90616545773714,-25.7864290907099,-2.31495971475084
5.77331602686777,-19.6289205665336,26.1846874739065,2.69103738233574,-8.34083134448671,40.8787098083997,3.46887704840575,75.8171271697611,8.56158015363076,-26.6583912059568,-3.02091920585614
5.67392577172169,-19.6082777009964,26.1118776214307,2.88482804083687,-7.61889244079145,40.6542727411901,3.32858843334953,75.288025921043,8.23890628510745,-27.5578407428809,-3.78120848591952
5.56659007238036,-19.5801440853255,26.0378394845271,3.07602815009322,-6.88570709409375,40.4118694930069,3.19894895375943,74.7092329103535,7.93423797513064,-28.480578045478,-4.59240318873992
5.45268841333485,-19.544554418327,25.9626344204018,3.26387767806682,-6.14627758480236,40.1527822477221,3.08195208599353,74.0837179794824,7.64356378830868,-29.4223059170452,-5.45057856897147
5.3335289996685,-19.5016592788349,25.8862998892324,3.44768019049661,-5.40560489877089,39.8786025613396,2.97928632619415,73.4149601758596,7.36290755610808,-30.3785884076733,-6.35129315488539
5.21032252845477,-19.4517211265882,25.8088539647975,3.62680581265307,-4.66859466078031,39.5912034044024,2.89228270705083,72.7069039931443,7.08846639893516,-31.3448327856045,-7.28960041403824
5.08415897622194,-19.3951077782273,25.7303012443081,3.80069293149648,-3.93996744148668,39.2927022307715,2.82187673214338,71.9639086381704,6.81674019431936,-32.3162985027789,-8.26009002439684
4.95598850386035,-19.3322836298241,25.6506399432235,3.96884877801955,-3.22417648728338,38.9854162889275,2.76858645381257,71.1906909728257,6.54464684827661,-33.2881344143047,-9.25695826852478
4.82660754946552,-19.2637989472296,25.5698698930573,4.13084902923344,-2.52533550096486,38.6718117800873,2.732507419108,70.392262806862,6.26961820468837,-34.2554428649323,-10.2741049055123
4.69665104573137,-19.190277584291,25.4880011009083,4.286336559912,-1.84715853911164,38.3544487532162,2.71332418634074,69.5738632482401,5.98967228537703,-35.2133667355305,-11.3052517890108
4.56659145100769,-19.1124035147582,25.4050624839173,4.43501946127038,-1.19291343145415,38.0359237916849,2.71033715655968,68.7408868756156,5.70345875767036,-36.1571933916467,-12.3440767045973
4.43674492786715,-19.0309065734787,25.3211103639557,4.5766684318671,-0.565389415709998,37.7188125841093,2.72250264383837,67.8988085995255,5.41027600191998,-37.0824679217205,-13.3843546186251
4.30728456509119,-18.9465477950878,25.2362363005469,4.71111363733392,0.0331210273438215,37.4056143886674,2.7484834838666,67.0531062307289,5.11005978581782,-37.9851072710961,-14.4200979424451
4.17826006134182,-18.8601047168743,25.1505738550833,4.83824112922179,0.600826801681977,37.0987002115553,2.78670709235022,66.2091819709651,4.80334520052268,-38.8615069570582,-15.4456876099072
4.04962282617184,-18.7723569837253,25.0643039165611,4.95798890650474,1.13643048641178,36.8002662497549,2.83542775210246,65.3722842660916,4.49120501826548,-39.708632959935,-16.455987721046
3.92125506318224,-18.6840725634101,24.9776582746211,5.070342693523,1.6391098831815,36.5122938256746,2.89279002054989,64.5474316843227,4.17516885176343,-40.5240929749353,-17.4464380906147
3.79300112878703,-18.5959948512522,24.8909211926003,5.17533149579,2.10849066256933,36.2365167000168,2.95689046501558,63.739340663281,3.8571283324364,-41.3061832257491,-18.4131210340336
3.66469933765247,-18.5088309105637,24.8044288050206,5.27302298435896,2.54461206456191,35.974396319687,3.02583538676894,62.9523590671866,3.53923392819752,-42.053909173378,-19.3528008442428
3.53621241874457,-18.4232410542794,24.7185662399453,5.3635187555532,2.94788760465396,35.727105258113,3.0977927206008,62.1904074774587,3.22378899419464,-42.7669804102719,-20.2629363834706
3.40745499777173,-18.3398299218478,24.6337624527493,5.44694951829294,3.3190626310009,35.4955188394772,3.17103684095344,61.4569299901459,2.91314623695686,-43.4457816142202,-21.1416688333043
3.27841675917944,-18.259139144793,24.5504828608862,5.52347027431456,3.65917038395539,35.280214697765,3.24398552656818,60.7548560107266,2.60961105266621,-44.0913225735659,-21.9877878268651
3.14918028128235,-18.1816416277885,24.4692199917227,5.59325557277251,3.96948794926005,35.081479792425,3.31522880118895,60.086574132418,2.31535527216655,-44.7051709980892,-22.8006799298779
3.01993289871364,-18.1077374047258,24.3904824938335,5.65649493538769,4.25149320232833,34.8993241750926,3.38354975821073,59.4539186852366,2.03234381487422,-45.2893721528219,-23.5802637852679
2.89097229071896,-18.0377509703593,24.3147830025811,5.71338855812588,4.50682355132147,34.7335005827632,3.44793778425914,58.8581689950791,1.76227572474423,-45.8463593666233,-24.3269162435024
2.7627057962215,-17.9719299513967,24.2426254628012,5.76414339741816,4.73723703368888,34.5835287524977,3.50759481999384,58.3000608528984,1.50654012317657,-46.3788592555371,-25.0413935347879
2.63564370362263,-17.910444976264,24.1744925526776,5.80896973966844,4.94457612084218,34.4487232560604,3.56193543999993,57.7798092184252,1.26618682673292,-46.8897951476398,-25.7247510805117
2.51038695345314,-17.8533906252387,24.1108337977695,5.84807833044427,5.13073443638092,34.3282236678824,3.61058160517716,57.2971408086718,1.04191076736185,-47.3821917757301,-26.37826497824
2.38760983418311,-17.8007873741772,24.052054832423,5.8816781082819,5.29762648057338,34.2210259896899,3.6533529505401,56.8513349669502,0.834048918770738,-47.8590838666648,-27.0033576088227
2.26803836331887,-17.7525844689161,23.9985081145318,5.90997455655148,5.44716036322101,34.126014406246,3.69025343161274,56.4412710748669,0.642588161361657,-48.323430820554,-27.6015292669805
2.15242515154591,-17.7086636782994,23.950485280208,5.93316866286641,5.58121347403275,34.0419925875209,3.72145508076535,56.0654807428565,0.467182390442482,-48.7780392427651,-28.1742972392881
2.04152167489937,-17.6688438749084,23.908211248554,5.95145645947535,5.70161097016059,33.9677138669468,3.74727953943321,55.7222030668566,0.307177163331046,-49.2254946856351,-28.7231433492175
1.93604905480534,-17.6328863883594,23.8718401307591,5.96502910504118,5.81010694260537,33.9019097288868,3.76817794754141,55.409441341045,0.161640261434229,-49.6681036167128,-29.2494706448009
1.83666868325855,-17.6005010693474,23.8414529392998,5.97407345361224,5.90836813748307,33.8433161491153,3.78470969674753,55.1250197492426,0.0293966830262439,-50.1078463834068,-29.7545695985831
1.74395432002509,-17.5713529948881,23.8170570310255,5.97877303929516,5.99796014442784,33.7906974493024,3.7975204950282,54.8666387107127,-0.0909332492355684,-50.546341756846,-30.2395938935234
1.65836757838572,-17.5450697358871,23.7985871660488,5.97930938700737,6.08033600530854,33.7428674352774,3.80732014884275,54.6319277246016,-0.200893814375093,-50.9848234148114,-30.7055455540333
1.58023890047747,-17.5212490952911,23.7859080322944,5.9758635442677,6.1568272261981,33.6987076766257,3.81486044357972,54.4184947355263,-0.302152857884244,-51.424128376224,-31.1532688400825
1.50975605286871,-17.4994672082752,23.7788180704264,5.96861772002346,6.22863718724563,33.6571828506239,3.82091348916463,54.2239712232774,-0.396460693121739,-51.864696950621,-31.5834519899601
1.44696169400378,-17.4792868781911,23.7770544263274,5.95775691576371,6.29683694009485,33.6173531239716,3.82625089283457,54.0460523949588,-0.485609761437997,-52.3065833579429,-31.9966356389972
1.39176059543039,-17.4602660081762,23.7802988520618,5.94347044047698,6.36236336434082,33.5783835895727,3.8316241235603,53.882532023869,-0.571395812277065,-52.7494759286589,-32.3932265942751
1.34393571157495,-17.441965981825,23.788184371401,5.92595321198123,6.42601962521028,33.5395508170865,3.83774643795765,53.7313316355227,-0.655581298855273,-53.1927256856436,-32.7735155938427
1.30317075873865,-17.4239598473597,23.8003025253703,5.90540676086856,6.48847783543463,33.5002466151243,3.84527673568646,53.5905238888348,-0.739861599704614,-53.6353820075415,-33.1376976997788
1.26907570097577,-17.4058401659568,23.816211018432,5.88203986842407,6.55028377746453,33.4599791383938,3.85480569013412,53.4583501407383,-0.82583456560167,-54.0762339005571,-33.4858940655339
1.24121096931791,-17.3872263932284,23.8354415961541,5.85606878548444,6.61186349103713,33.4183715043531,3.86684444792274,53.3332323157221,-0.914973759618804,-54.5138552223565,-33.8181739678078
1.21910660669849,-17.3677716712272,23.857507998755,5.82771699528294,6.67353147905617,33.3751581120216,3.88181610760523,53.2137793281927,-1.00860561879642,-54.9466521317293,-34.1345761639374
1.20227378758641,-17.3471689161788,23.8819138502705,5.79721450067914,6.73550023505393,33.3301788816905,3.90005008203229,53.0987884250098,-1.10789063805122,-55.3729111321784,-34.4351288016678
1.19020797959864,-17.3251560952115,23.9081603599421,5.76479663569312,6.79789075196095,33.2833716586352,3.92177933310615,52.9872419263981,-1.21380857763206,-55.7908462910723,-34.719867280047
1.18238490505941,-17.3015205949504,23.9357537313089,5.73070242310594,6.86074363981531,33.2347630463254,3.94714035440021,52.8782999419463,-1.32714763180296,-56.1986444800482,-34.9888496570635
1.17825194407694,-17.2761025970987,23.9642121950478,5.69517252282354,6.92403046591181,33.1844579556423,3.97617567587554,52.7712897195594,-1.44849746087312,-56.5945077510962,-35.2421694164853
1.17721837119822,-17.2487973916851,23.9930726019304,5.65844683720819,6.98766493997641,33.13262817748,4.00883858216295,52.6656923444947,-1.57824596352196,-56.9766922064255,-35.4799656145078
1.17864773816015,-17.2195565775223,24.0218965303894,5.62076185684232,7.05151360027113,33.0795003067177,4.044999675462,52.5611275406978,-1.71657963391998,-57.3435429192359,-35.7024305920108
1.18185493549134,-17.1883881211499,24.0502758777069,5.58234784146139,7.11540571012293,33.0253433637882,4.08445487663843,52.457337337974,-1.86348729850455,-57.6935246121466,-35.9098155359684
1.18610927392468,-17.1553552697406,24.0778379124821,5.54342593628938,7.17914214150811,32.9704564735396,4.12693444054374,52.3541693582121,-2.01876696048587,-58.0252479120427,-36.102434198153
1.19064366259874,-17.1205743402927,24.104249765788,5.50420532551463,7.24250309590936,32.9151569674981,4.17211255951838,52.2515604440335,-2.18203540493933,-58.3374910983466,-36.2806650459785
1.19466891003865,-17.0842114374895,24.1292223287289,5.46488052369285,7.30525458532479,32.8597692702315,4.2196171407936,52.149521304283,-2.35274014791745,-58.6292173680099,-36.4449520579581
1.19739149795178,-17.046478185793,24.1525135087494,5.42562890199302,7.3671536600306,32.8046149055609,4.26903937220937,52.0481227805074,-2.5301732641147,-58.8995877552898,-36.5958043121922
1.19803290344513,-17.0076265957922,24.1739307818693,5.38660853742248,7.42795241823703,32.7500039086559,4.31994274178817,51.9474842437927,-2.7134866074092,-59.1479699428907,-36.7337944648505
1.19584859836629,-16.967943216832,24.1933329678313,5.3479564579939,7.48740086471378,32.6962278588534,4.37187125276463,51.8477645120907,-2.90170794424464,-59.3739432557661,-36.8595561783866
1.19014511643567,-16.9277427534347,24.2106311526088,5.3097873351073,7.5452487038828,32.6435546661359,4.42435667254137,51.7491555407288,-3.093757540419,-59.5773001316834,-36.9737805332803
1.18029393616687,-16.8873613394265,24.2257886884763,5.2721926473114,7.60124616299379,32.5922251629841,4.4769247605316,51.6518789938391,-3.2884647675873,-59.7580443240734,-37.0772114413082
1.16574130123946,-16.8471496703313,24.2388202148019,5.23524030980024,7.65514394834242,32.5424514795824,4.52910052040518,51.5561856633698,-3.48458432420269,-59.9163860314527,-37.1706400739596
1.14601345401218,-16.8074661916372,24.2497896610496,5.19897473570389,7.70669244589787,32.4944171157788,4.58041260208545,51.462357575399,-3.68081170066163,-60.0527340877648,-37.2548983266617
1.12071709509207,-16.7686705279443,24.2588072163101,5.16341727270158,7.75564028679771,32.4482785658323,4.63039702907967,51.3707125195225,-3.87579756550949,-60.16768531672,-37.3308513536039
1.08953523658156,-16.7311173159444,24.266025277657,5.12856694444342,7.80173240341273,32.4041682978711,4.67860044659841,51.281610662097,-4.06816081245731,-60.2620111710063,-37.3993892223945
1.05221905215418,-16.6951505740666,24.2716334230504,5.09440142116762,7.84470769774252,32.3621988369203,4.72458308158909,51.1954628593226,-4.25650008781827,-60.3366418443834,-37.461417748853
1.00857694657552,-16.6610987064225,24.2758524910104,5.06087814620614,7.88429642838842,32.3224676520703,4.76792158718185,51.1127402681871,-4.43940371314295,-60.3926481393868,-37.517848581934
0.95846305144143,-16.6292702021622,24.2789278845088,5.02793555275096,7.92021739746399,32.2850625136584,4.80821192064498,51.0339848565177,-4.61545802429817,-60.4312214657692,-37.5695886221961
0.901769061239913,-16.5999500571829,24.2811222474867,4.99549431727097,7.95217499124253,32.2500669727316,4.84507238129614,50.9598204312746,-4.78325425973357,-60.453652415272,-37.6175288783273
0.838426549296689,-16.5733969162491,24.282707688803,4.9634586121072,7.97985610736345,32.2175656242248,4.87814691326961,50.8909638295779,-4.94139423783788,-60.4613084030454,-37.6625328949511
0.768433573552361,-16.5498409115899,24.2839577509759,4.93171733931216,8.00292699455262,32.1876488434941,4.90710875453156,50.8282359422526,-5.08849515344897,-60.4556108874773,-37.705424917084
