Finger Velocity,Scap_X,Scap_Y,Scap_Z,Shoulder horiz abd-adduction,Shoulder flexion-extension,Shoulder internal-external rotation,elbow flexion-extension,forearm pronation-supination,wrist flexion-extension,wrist radial-ulnar deviation
0.792710320632394,-20.9174185139822,25.1707472177969,1.92029535594256,-6.44262138657216,47.1554896633197,-8.50169972510483,70.5884188241829,23.4602784831456,-19.2351017672794,3.34984960268915
0.963658294010454,-20.8894642714482,25.1665040403718,1.90184547308894,-6.51591755001127,47.1986395911096,-8.49630716111967,70.6532099463469,23.2108751101375,-18.759201010497,3.62577637165799
1.14814192137407,-20.8608940561412,25.1591813962403,1.8849488129019,-6.59322887571951,47.2564883877498,-8.49060034615556,70.7383285930561,22.9459119282113,-18.2867641492043,3.88943057926268
1.34416211590156,-20.8318858183803,25.1485873765152,1.86996562694064,-6.67389085051734,47.3300097309588,-8.48465745582934,70.8452752308991,22.6665037835645,-17.8282393892891,4.13223755541766
1.5497847918488,-20.802621782033,25.1345570208122,1.85724740026369,-6.75711255126502,47.4199978123883,-8.4785876813268,70.9753210558364,22.3739445428794,-17.3943396160908,4.34558344800943
1.76305081477673,-20.7732851459822,25.1169551510625,1.84713054059302,-6.8419738990474,47.5270366001233,-8.47253679725875,71.1294626445923,22.0696913862373,-16.9956003797651,4.52123379688102
1.98194091332212,-20.7440565044598,25.09567861693,1.83993024544278,-6.92742427409607,47.6514710856599,-8.46669277668111,71.3083788293695,21.7553466271988,-16.6419301717547,4.65175275516468
2.20437078099959,-20.7151099961445,25.070657923703,1.83593468667361,-7.01228282569059,47.7933812516192,-8.46129107319848,71.512391006938,21.4326372823324,-16.3421897546135,4.73088582291275
2.42820405401246,-20.6866092057342,25.0418582387461,1.83539964697016,-7.09524086434625,47.95255947196,-8.45661911719861,71.741428108214,21.1033925545538,-16.1038338480456,4.75387269143284
2.65127667691312,-20.6587028606022,25.0092797941072,1.83854373631545,-7.17486675954656,48.1284920191018,-8.45301951868518,71.9949974299074,20.7695193516783,-15.9326403585691,4.7176653006606
2.87142895233522,-20.6315203863631,24.9729577163049,1.8455443073238,-7.2496137827354,48.3203453041063,-8.45089143582001,72.272162458029,20.4329759436335,-15.832541311188,4.62103772649493
3.08654293279882,-20.6051674063529,24.9329613170548,1.85653417504514,-7.31783133257177,48.5269574170888,-8.45068955840206,72.57152869101,20.0957438690924,-15.8055579080798,4.46458679572502
3.294583486148,-20.5797212896512,24.8893928710075,1.87159922966119,-7.37777995729878,48.746835464209,-8.4529201716538,72.8912382994833,19.7597982292632,-15.8518317770806,4.2506332538929
3.4936416932079,-20.5552268694595,24.8423858913527,1.89077701111637,-7.42765054427396,48.9781591134267,-8.45813381169291,73.2289742430629,19.4270765486965,-15.9697369452678,3.98304137549512
3.68197937981824,-20.531692467631,24.79210289599,1.91405629502973,-7.46558797413349,49.2187906614914,-8.46691410417356,73.5819742045366,19.0994464402323,-16.1560530083264,3.66697942243149
3.85807362409954,-20.5090863707986,24.7387326418673,1.94137771969489,-7.48971943128346,49.4662918160381,-8.47986249493274,73.9470544048356,18.7786723843446,-16.4061792070128,3.30864441330179
4.0206600502968,-20.4873339071128,24.6824867998963,1.97263546375519,-7.49818741726552,49.7179472452244,-8.49757873876182,74.3206430391326,18.4663820183663,-16.7143709557187,2.91497290004625
4.16877363763992,-20.4663152679442,24.62359605401,2.00767996199866,-7.48918732228505,49.970794780245,-8.52063721301191,74.6988227406087,18.1640324210745,-17.0739838015237,2.49335579813766
4.30178563966697,-20.4458642042481,24.5623056385949,2.04632162175445,-7.46100916754844,50.2216619648499,-8.5495593696272,75.0773811529607,17.8728769684211,-17.4777137977412,2.05137079896154
4.41943502467035,-20.4257677025141,24.4988703758015,2.08833547467218,-7.41208283525964,50.4672084408541,-8.58478293238723,75.4518683989075,17.5939334281837,-17.9178270216639,1.59654137565397
4.5218526104376,-20.4057667128765,24.4335493293895,2.13346666964552,-7.3410257578868,50.7039734581361,-8.62662878052747,75.8176599934632,17.3279540590927,-18.3863739740483,1.13612742281166
4.60957578320654,-20.3855579664221,24.3666002446551,2.18143668453937,-7.24669165690928,50.9284276217081,-8.67526682227797,76.1700235857135,17.0753985843663,-18.8753867293762,0.676949380013776
4.68355138605352,-20.3647968839799,24.298273987131,2.23195010920073,-7.12821853078496,51.1370278502465,-8.7306825271176,76.5041878312454,16.8364110109442,-19.3770580208223,0.225245340672821
4.745124089758,-20.3431015468789,24.2288092211985,2.28470183098187,-6.98507373405303,51.3262744242396,-8.79264611439737,76.8154117013371,16.6108013392228,-19.8839020927905,-0.213440880347184
4.79600741656326,-20.3200576722515,24.1584275790297,2.33938443641966,-6.81709371699404,51.4927689458045,-8.86068663681604,77.0990526188434,16.3980332200439,-20.388897342422,-0.634343558152647
4.83823472375642,-20.2952245121674,24.0873295565941,2.39569562777352,-6.62451586414551,51.6332720113094,-8.93407329351827,77.3506319614538,16.1972185397021,-20.8856107183478,-1.03353385111949
4.8740880675489,-20.2681415775163,24.0156913358178,2.45334544057194,-6.40799992955386,51.7447594061189,-9.01180621038816,77.5658966726578,16.0071197436808,-21.3683037243093,-1.40795658412444
4.90600417260383,-20.2383360732713,23.943662673645,2.5120630404357,-6.16863684933046,51.8244756620232,-9.0926186057321,77.7408759500128,15.8261604611419,-21.8320197898331,-1.75544773649032
4.9364588860398,-20.2053309195181,23.8713659272407,2.57160287878048,-5.90794322549231,51.8699838669489,-9.17499171729951,77.8719322222133,15.6524446970058,-22.272652755689,-2.07473497066337
4.96783448228968,-20.1686532202476,23.7988962100501,2.63175000150149,-5.62784049790174,51.8792106800063,-9.25718312965349,77.9558058680884,15.4837845573973,-22.6869962653255,-2.36542313024835
5.00227769370552,-20.1278430280837,23.72632260612,2.6923243325725,-5.33061870381734,51.8504855825453,-9.3372682621918,77.989653362552,15.3177362039101,-23.0727739290833,-2.62796622650503
5.04155969135529,-20.0824622380124,23.653690317947,2.75318379159565,-5.01888569388612,51.7825734912377,-9.41319382929647,77.9710787500286,15.1516435139307,-23.4286502338981,-2.86362705720936
5.08695146626795,-20.0321034279144,23.5810235904286,2.81422614541223,-4.695503639518,51.6746999784336,-9.48284115026995,77.8981585406382,14.9826887600795,-23.7542223249185,-3.07442530981054
5.13912819829463,-19.9763984498189,23.5083292406495,2.87538953575397,-4.36351553266565,51.5265684919693,-9.54409636044554,77.7694602938131,14.807949495558,-24.0499929935203,-3.26307482320134
5.19811370457523,-19.9150265652035,23.4356006271352,2.93665166747829,-4.02606505417172,51.33836913882,-9.59492394578336,77.5840552897776,14.6244607155429,-24.3173254619582,-3.43291062264775
5.26327116821363,-19.8477219126703,23.3628219071811,2.99802768654923,-3.68631360057907,51.1107787864956,-9.63343966370016,77.3415257797697,14.4292812265402,-24.5583808596156,-3.58780639478292
5.33334012549298,-19.7742800991942,23.2899724503165,3.05956682389527,-3.3473583735304,50.8449524333024,-9.65797886409966,77.04196734011,14.2195629716654,-24.7760396484462,-3.73208323034074
5.40651367799689,-19.6945637185884,23.2170312944652,3.12134792803639,-3.01215524950074,50.5425059946263,-9.66715649021567,76.6859868272536,13.9926218206728,-24.9738086758166,-3.87041072481061
5.48054551240661,-19.6085066241065,23.1439815460382,3.18347405114971,-2.68344969316298,50.2054908399803,-9.65991558824886,76.2746963412823,13.7460080492154,-25.1557159957773,-4.00770187471687
5.55287433211318,-19.5161168167308,23.0708146352408,3.24606628564756,-2.36371831366668,49.8363605901198,-9.63556193161417,75.8097034609677,13.4775744332694,-25.3261960698791,-4.14900360544391
5.62075369070655,-19.4174778558645,22.9975343435532,3.30925706957308,-2.05512286505022,49.4379308440026,-9.59378329635661,75.2930978287842,13.1855396204179,-25.4899683786605,-4.29938515860533
5.68137730523212,-19.312748751864,22.9241605223409,3.37318319020907,-1.75947764236743,49.0133326530091,-9.53465292520706,74.7274339614318,12.8685442670925,-25.6519127788836,-4.46382688501355
5.73199281598446,-19.202162355349,22.8507324208378,3.43797871834059,-1.47823040361223,48.5659606955802,-9.45861770199773,74.1157099691882,12.5256974038703,-25.8169450833634,-4.64711218022416
5.76999985779652,-19.0860223113362,22.7773115397927,3.50376810138754,-1.21245622303287,48.0994172276034,-9.36647244333709,73.4613417166111,12.1566106495508,-25.9898963039031,-4.85372533748363
5.79303071428509,-18.9646986929045,22.7039839259687,3.57065963139403,-0.962863103962054,47.617452988327,-9.25932243176582,72.7681318773375,11.761418259093,-26.1753987809567,-5.08775796713516
5.79901354492604,-18.8386224668029,22.6308618246815,3.63873948361239,-0.72980777330617,47.1239063232154,-9.13853681872086,72.0402333518638,11.3407815562668,-26.3777820377723,-5.35282634687645
5.78621922934674,-18.7082789706594,22.5580846140089,3.70806649484466,-0.513319844817644,46.622641838617,-9.005695798678,71.2821066435441,10.8958770359945,-26.6009806995798,-5.65200166785835
5.7532934018254,-18.5742005972127,22.4858189556936,3.77866781968771,-0.313132456326537,46.1174899223817,-8.86253450416723,70.4984710225795,10.4283682647536,-26.8484563055338,-5.98775470137257
5.69927541900129,-18.436958885152,22.4142581142284,3.8505355681322,-0.128717529725226,45.6121884437813,-8.71088641958394,69.6942496319376,9.94036258583679,-27.1231343751898,-6.36191597582228
5.62360596303283,-18.2971562104111,22.343620417107,3.92362448986163,0.0406760605350053,45.1103278813506,-8.55262879784894,68.8745090726626,9.43435447189853,-27.4273576587641,-6.77565211071962
5.52612484027777,-18.1554172590314,22.2741468551746,3.99785073016841,0.195982926842336,44.615301017616,-8.38963213422083,68.0443944113001,8.91315808457906,-27.7628560448199,-7.22945846230549
5.40706036246615,-18.0123804451216,22.2060978510309,4.07309164211509,0.338281502092047,44.130258187337,-8.22371525448219,67.2090609363586,8.37983213204079,-28.1307330865629,-7.72316768153331
5.26701153256721,-17.8686894157676,22.1397492537371,4.14918660295817,0.468755315638502,43.6580688775665,-8.05660705699639,66.3736043105268,7.83760041059465,-28.5314685745155,-8.25597322213114
5.10692411881205,-17.7249847597251,22.0753876479332,4.22593875373451,0.588656033948542,43.201290265593,-7.88991545235779,65.5429909844542,7.28977145821968,-28.9649361084137,-8.82646635156264
4.9280615920964,-17.5818960105786,22.0133050937876,4.3031175621701,0.699268892929328,42.7621430597024,-7.72510360502284,64.721990832719,6.73966054953831,-29.4304342440872,-9.43268485860221
4.73197182165077,-17.4400340112519,21.9537934405676,4.38046210108155,0.80188099177413,42.3424947912022,-7.56347321912889,63.9151139345028,6.19051685930321,-29.9267294934833,-10.0721714104249
4.52045036578836,-17.2999836885277,21.8971383808865,4.45768493450811,0.897752795583935,41.9438505034532,-7.40615433168799,63.1265532575254,5.6454580659177,-30.4521092287211,-10.7420393776572
4.29550115248354,-17.1622972752776,21.8436134337788,4.5344765080026,0.98809309519964,41.5673506000676,-7.2541008777227,62.3601347350543,5.10741402210674,-31.0044424014388,-11.4390439132522
4.05929531299294,-17.0274880146687,21.7934740597165,4.61050994525857,1.07403758765957,41.213775453628,-7.10809116910804,61.6192758819376,4.57908045405005,-31.5812459319002,-12.1596561144398
3.81412890667081,-16.8960243841212,21.746952115529,4.685446159774,1.15663116418002,40.8835562414555,-6.96873237736566,60.9069537095725,4.06288302186099,-32.1797546167725,-12.9001381808648
3.56238025441079,-16.7683248859512,21.704250849497,4.7589391965829,1.23681392193095,40.5767913680457,-6.83646812311144,60.2256823054322,3.56095152918255,-32.7969924288184,-13.6566175945272
3.30646758194836,-16.6447534638294,21.6655406170059,4.83064172267523,1.31541084808315,40.2932677547361,-6.7115883386471,59.5775000721392,3.07510364131523,-33.4298431365047,-14.4251584962881
3.04880766576905,-16.5256156156744,21.630955466896,4.90021058246608,1.39312505683475,40.0324862244842,-6.59424066930142,58.9639662987836,2.60683717836347,-34.0751182728813,-15.2018286267213
2.79177618105622,-16.4111552811367,21.600590710203,4.96731232548784,1.47053439327607,39.7936901817486,-6.48444279897626,58.3861664776827,2.15732989405195,-34.7296206506468,-15.9827604340473
2.53767048719331,-16.3015525842602,21.5745015391911,5.03162860011473,1.54809115792335,39.5758967829184,-6.38209521654935,57.8447255883544,1.72744561798786,-35.39020185691,-16.7642052179928
2.2886756774492,-16.196922509565,21.5527027189128,5.09286129515571,1.62612465979044,39.3779298094844,-6.28699407680506,57.3398284446626,1.3177457017702,-36.0538124575245,-17.542579467559
2.04683491170981,-16.0973145823727,21.5351693283609,5.15073730542623,1.70484627612946,39.1984534908341,-6.19884394513634,56.8712461317409,0.928504830020254,-36.7175440018122,-18.3145028710289
1.81402542861012,-16.0027136102217,21.5218384843963,5.20501279981228,1.78435667906241,39.03600657254,-6.11727033734153,56.438367533667,0.559730396217346,-37.3786623538987,-19.0768278399667
1.59194235340939,-15.9130415203765,21.5126119401714,5.25547688067016,1.86465487759317,38.8890359862379,-6.0418320610148,56.0402349588077,0.211184766870678,-38.0346323614393,-19.8266607817003
1.38209378169044,-15.8281602991018,21.5073594145578,5.30195454071893,1.94564871533244,38.7559295446819,-5.97203342299413,55.6755828973084,-0.117590155047262,-38.6831343352968,-20.5613757300233
1.18581321548188,-15.7478760035317,21.505922485632,5.34430884596482,2.02716645855541,38.6350471539818,-5.90733638291305,55.3428789856738,-0.427246612617217,-39.3220731733702,-21.2786212449928
1.00430041535494,-15.6719437792342,21.508118873068,5.38244229786842,2.10896910515189,38.5247500986581,-5.84717270756724,55.0403662994531,-0.71860346150987,-39.9495811703936,-21.9763216827326
0.838711301343433,-15.6000737788224,21.5137469403677,5.41629735288137,2.19076304515648,38.4234280138356,-5.79095612435596,54.7661061427375,-0.9926179695353,-40.564015620192,-22.6526740128706
0.690335157237109,-15.531937842589,21.5225902638785,5.44585610227653,2.27221271542541,38.3295232186559,-5.73809440118564,54.5180205527439,-1.25035750470544,-41.1639522874868,-23.3061413514562
0.560924268581373,-15.4671767748083,21.5344221364997,5.471139140122,2.3529529231179,38.2415521519471,-5.6880012131358,54.2939337909795,-1.49297165348048,-41.7481757605333,-23.9354443143531
0.453248843607893,-15.4054080316218,21.5490098962369,5.4922036717337,2.43260056765524,38.1581237258058,-5.64010760602386,54.0916121501352,-1.72166527222273,-42.3156676252436,-24.5395511953498
0.37175475077061,-15.3462336287174,21.5661189912592,5.50914093739621,2.51076556211628,38.0779544902497,-5.59387283802974,53.9088014690184,-1.93767291579914,-42.8655933219801,-25.1176678258578
0.322242885985789,-15.2892480782187,21.5855167127811,5.52207304474604,2.58706082847053,37.9998805773071,-5.54879436986549,53.7432618208394,-2.14223501543526,-43.3972884342664,-25.6692277641239
0.30818838574792,-15.2340461728931,21.6069755441897,5.53114931694467,2.66111130146463,37.922866463046,-5.50441677724375,53.5927989294779,-2.33657609996308,-43.9102449984157,-26.1938831945062
0.325462174411005,-15.1802304506671,21.6302760887595,5.53654227275705,2.73256191353693,37.8460106497475,-5.460339374212,53.455291976342,-2.52188527585679,-44.4040982262963,-26.6914966237859
0.364021433460199,-15.1274181920759,21.6552095488052,5.5384433595603,2.80108454668029,37.7685484259367,-5.41622236098716,53.3287175805079,-2.69929910757603,-44.8786138374435,-27.1621331919856
0.414582886585851,-15.0752478265415,21.6815797365749,5.53705856159774,2.86638393343807,37.689851907209,-5.37179134343896,53.2111698544215,-2.86988697567362,-45.3336760403565,-27.6060532118858
0.471381838253084,-15.0233846497101,21.7092046027535,5.5326040034024,2.92820247855266,37.6094275947539,-5.32684011084271,53.1008765458565,-3.03463893755702,-45.7692761043405,-28.023704430416
0.531395929353619,-14.9715257827581,21.7379172742275,5.5253016617085,2.98632396407151,37.5269117120982,-5.28123160170355,52.9962113696318,-3.19445607314778,-46.1855014194687,-28.4157134616396
0.59308843350426,-14.9194043338388,21.7675666006832,5.51537528815317,3.04057609973183,37.4420635967998,-5.23489703427531,52.895702709863,-3.35014326192606,-46.5825249398466,-28.782875865219
0.6555872143765,-14.8667927489906,21.7980172197142,5.50304663058645,3.09083189052269,37.3547574363071,-5.18783323112477,52.7980389359008,-3.50240430575608,-46.9605949272189,-29.1261444276335
0.718247629245198,-14.8135053621768,21.8291491608319,5.48853202439039,3.13700981510035,37.2649726479382,-5.14009822701865,52.7020706217828,-3.65183928142008,-47.320024941839,-29.4466153376964
0.780442650011644,-14.7594001697394,21.860857018968,5.47203940801504,3.17907283930892,37.1727832109549,-5.09180531383483,52.6068099893714,-3.79894397708337,-47.6611840584071,-29.7455121222033
0.841477198098625,-14.7043798627824,21.8930487378861,5.45376579972625,3.21702632303628,37.0783462620414,-5.04311573908372,52.5114279112816,-3.94411123743864,-47.9844873223888,-30.0241674063245
0.900568943951138,-14.6483921528484,21.9256440538625,5.43389525620114,3.25091491098033,36.9818902625211,-4.99423032933102,52.415248815053,-4.08763401375833,-48.2903865150248,-30.284002765259
0.956863363028372,-14.5914294244843,21.9585726602138,5.41259731919498,3.28081852645243,36.8837030347201,-4.94538035083935,52.3177438278996,-4.22970989162912,-48.5793613615604,-30.5265071140928
1.00946474122744,-14.5335277465899,21.9917721634982,5.39002594496685,3.30684761348328,36.7841199447988,-4.89681794349037,52.2185224933025,-4.37044685737941,-48.8519113787793,-30.7532142204615
1.05747270812471,-14.4747652758221,22.0251859116978,5.36631890295423,3.32913779944398,36.683512481306,-4.84880646955803,52.1173233773869,-4.50987006845055,-49.1085485911218,-30.9656800055811
1.10001853073639,-14.4152600906178,22.0587607820496,5.34159762536013,3.34784417984661,36.5822774462847,-4.80161110842506,52.0140038645277,-4.64792941150997,-49.3497913350658,-31.1654603182396
1.1362981791874,-14.355167502562,22.0924450202476,5.31596748708005,3.36313545587803,36.4808269421625,-4.75549000566675,51.908529418069,-4.78450765847554,-49.5761593237527,-31.3540898301487
1.16560080769695,-14.2946769012927,22.1261862227405,5.28951849370511,3.37518817576549,36.3795793038566,-4.71068625243638,51.8009625552032,-4.91942905744888,-49.788170078296,-31.5330626275944
1.18733221928061,-14.2340081986672,22.1599295491679,5.2623263517409,3.38418133459158,36.2789510908757,-4.66742092906837,51.6914517590149,-5.05246821679113,-49.9863367694293,-31.703814980648
1.20103338274877,-14.1734079462178,22.1936162420972,5.23445388836988,3.39029156812627,36.179350218262,-4.62588739551491,51.5802205294442,-5.18335915144178,-50.1711674620368,-31.867710662072
1.20639432840234,-14.113145205509,22.2271825163673,5.20595277826317,3.39368913411924,36.081170268789,-4.58624695278847,51.4675567587858,-5.31180435798882,-50.3431657105236,-32.0260290592143
1.20326387958906,-14.0535072526792,22.2605588616389,5.17686552298902,3.39453481393215,35.984785993904,-4.54862593822926,51.3538026020302,-5.43748376933853,-50.502832398873,-32.179956171919
1.19165575168655,-13.9947951957156,22.2936697809496,5.14722761544727,3.39297779671279,35.8905499794783,-4.51311425777917,51.239344992006,-5.56006341678264,-50.6506686406331,-32.3305784262434
1.17175161058719,-13.9373195761974,22.3264339669251,5.11706980854175,3.38915453682085,35.7987904251133,-4.47976530394236,51.1246069208546,-5.67920360580642,-50.7871794547533,-32.4788790770928
1.1439017550334,-13.8813960174235,22.358764897362,5.0864203953924,3.383188510663,35.7098099620416,-4.44859716109587,51.0100395745364,-5.7945663995338,-50.9128778379804,-32.6257368478454
