Finger Velocity,Scap_X,Scap_Y,Scap_Z,Shoulder horiz abd-adduction,Shoulder flexion-extension,Shoulder internal-external rotation,elbow flexion-extension,forearm pronation-supination,wrist flexion-extension,wrist radial-ulnar deviation
0.923877946573857,-13.3427448227625,-16.1418417245472,4.21571254527222,-3.83179722204089,-55.7843750348438,-3.33325380280652,56.4792983008468,-17.4130583178653,-31.2816720193257,15.9904262981119
1.15419119460671,-13.3187391914799,-16.1554975408336,4.25741207589832,-3.97189899703067,-55.7461691850948,-3.45999925212334,56.4705043654024,-17.2407140883702,-31.1121973006775,15.9137015056892
1.40142604637262,-13.2947839334196,-16.1676365683259,4.29691668764895,-4.11109221465305,-55.7124971183098,-3.58241967583809,56.4687652077,-17.0518090138024,-30.9236779700485,15.8275881584219
1.66409102471231,-13.2712138619187,-16.1780540859812,4.33390991065126,-4.24857432963513,-55.6835646774574,-3.69945944628961,56.4746118201059,-16.8463688709191,-30.7163534141372,15.7316614920982
1.94051090743765,-13.2483697121233,-16.1865683290299,4.36810209591294,-4.38360366282028,-55.6594482648342,-3.81013764228622,56.4884768753085,-16.6245795524432,-30.4908958981975,15.6256294103991
2.22881116227652,-13.2265911769894,-16.1930239128294,4.3992337277624,-4.51551260396018,-55.6400832995694,-3.91356513476604,56.5106793345311,-16.3867862256552,-30.2484290720076,15.5093374135426
2.52692251306619,-13.2062097861389,-16.1972945456457,4.42707809325967,-4.64371934504228,-55.6252553839661,-4.00895985076194,56.5414102549332,-16.1334895982612,-29.9905311389323,15.3827662071174
2.83259653982463,-13.1875417882023,-16.1992849318629,4.45144323133789,-4.76773782882963,-55.6145945641074,-4.09565968423484,56.58072011033,-15.8653393969182,-29.7192210419029,15.2460219699993
3.14342841213604,-13.1708811951436,-16.1989317951525,4.47217310379658,-4.88718560166056,-55.6075729975132,-4.17313255191403,56.6285079110192,-15.5831252132622,-29.4369268592615,15.0993200038877
3.45688477235976,-13.1564931422753,-16.1962039828627,4.48914795630936,-5.00178928082069,-55.6035062500526,-4.24098315573054,56.6845123769851,-15.28776491529,-29.14643658605,14.9429632321294
3.7703355447708,-13.1446077103332,-16.1911016483249,4.50228386592094,-5.11138738520536,-55.6015583368259,-4.29895610706651,56.748305385734,-14.9802908598122,-28.8508325199903,14.7773176504215
4.08108875779229,-13.1354143470849,-16.1836545440038,4.51153149837433,-5.21593033273105,-55.6007505024166,-4.34693518672267,56.8192878809775,-14.6618341731055,-28.553411484805,14.6027872561694
4.38642759257601,-13.1290570154068,-16.1739194924006,4.51687412292027,-5.31547747943064,-55.599973611402,-4.38493865255465,56.89668839054,-14.3336073914365,-28.257594028947,14.4197911344776
4.68364891947131,-13.1256301806861,-16.1619771327668,4.51832495511753,-5.41019116440718,-55.5980038965029,-4.4131106579635,56.979564261053,-13.9968857737942,-27.966826485003,14.2287452436854
4.97010260136753,-13.1251757309866,-16.1479280704075,4.51592392023378,-5.50032783035433,-55.5935216953571,-4.43170900160189,57.0668056727988,-13.6529876203952,-27.6844803136331,14.0300510326074
5.24323085140801,-13.1276808990188,-16.1318885807338,4.50973394923773,-5.58622640546414,-55.5851327039402,-4.44108958306327,57.1571424495538,-13.3032539548658,-27.4137534109149,13.8240923474492
5.5006069428268,-13.1330772283177,-16.1139860396564,4.49983693302724,-5.66829425221177,-55.5713911905922,-4.4416880827762,57.2491536255166,-12.9490279559245,-27.1575779611339,13.6112411838271
5.73997258588525,-13.1412406008452,-16.0943542624616,4.48632946767155,-5.74699110546823,-55.550824554531,-4.43399951144764,57.3412796766836,-12.5916345555845,-26.9185389508943,13.3918717985114
5.95927331345697,-13.1519923218889,-16.0731289333951,4.46931852641307,-5.82281152924004,-55.5219585814471,-4.41855638234026,57.4318372711159,-12.2323606530819,-26.6988066720229,13.1663816636069
6.15669125343461,-13.1651012403872,-16.0504432985503,4.4489171959202,-5.89626650854554,-55.4833427487108,-4.39590634571607,57.5190363450651,-11.8724364191784,-26.5000855429273,12.935216901225
6.33067471244334,-13.1802868671927,-16.0264242776844,4.42524061556579,-5.96786485241118,-55.4335749604978,-4.36659018452887,57.6009992719415,-11.5130181712959,-26.3235805217137,12.6988993357267
6.47996405019381,-13.1972234398714,-16.0011891284094,4.39840225780007,-6.03809511222837,-55.3713251401538,-4.33112109809486,57.6757818581415,-11.1551732742851,-26.1699813935726,12.4580522149282
6.60361338542229,-13.2155448709345,-15.9748427699548,4.36851068300547,-6.10740871624013,-55.2953571640142,-4.28996618896516,57.7413958711636,-10.799867461371,-26.0394643522723,12.21342194955
6.70100774044526,-13.2348505061936,-15.9474758437903,4.33566689178426,-6.17620498383252,-55.2045486823241,-4.24353100888749,57.7958327783801,-10.4479548822623,-25.9317095824285,11.9658938027359
6.77187529912777,-13.2547116084806,-15.9191635556066,4.29996237980358,-6.24481860879933,-55.0979084382132,-4.19214790455774,57.8370883483296,-10.1001710845273,-25.8459329832361,11.7165002038824
6.81629451934523,-13.2746784661789,-15.8899653095957,4.26147797453063,-6.31351008773977,-54.9745907664682,-4.13606873131344,57.8631877420723,-9.7571290350835,-25.7809297355469,11.4664211379894
6.83469590228855,-13.2942880045613,-15.8599251148046,4.2202835011187,-6.38245942467113,-54.8339070314589,-4.07546228222706,57.8722107036824,-9.41931820116473,-25.7351270900486,11.216976769853
6.82785827350907,-13.3130717522618,-15.829072716613,4.17643828937468,-6.45176327844025,-54.6753338486408,-4.01041652877299,57.8623164508559,-9.08710663551549,-25.7066435632252,10.9696130372074
6.79689947075563,-13.3305639889681,-15.7974253838648,4.12999249746481,-6.52143554837507,-54.4985180262674,-3.94094550754731,57.8317678724183,-8.76074594329727,-25.6933517064381,10.7258813634849
6.74326135822718,-13.3463098780518,-15.7649902626318,4.08098919182506,-6.59141122558614,-54.3032782612235,-3.86700043482213,57.778954659842,-8.44037894434504,-25.6929417877987,10.4874139037147
6.66868909383648,-13.3598733732131,-15.7317671905712,4.02946708714912,-6.66155318164239,-54.0896037201681,-3.78848440538915,57.7024150316214,-8.12604978493975,-25.7029840942537,10.2558958650065
6.57520456573348,-13.3708446838089,-15.697751852157,3.9754638160987,-6.73166143424497,-53.8576497263582,-3.70526985127406,57.6008557466739,-7.81771619871834,-25.7209880764304,10.0330364501248
6.46507389089064,-13.378847090199,-15.6629391458609,3.919019567554,-6.80148433282023,-53.6077308446621,-3.61721781442038,57.4731701397892,-7.51526356290015,-25.7444571235841,9.82053986248998
6.34076884239953,-13.3835429176176,-15.6273266307223,3.8601809088929,-6.8707310533329,-53.3403117068922,-3.52419803512901,57.3184539443278,-7.21852033928384,-25.7709382599195,9.62007759583301
6.20492206253994,-13.3846385037491,-15.5909179223515,3.7990045965505,-6.93908477980763,-53.05599594786,-3.42610887420527,57.136018693429,-6.9272744308788,-25.7980664368633,9.43326294890004
6.06027595644974,-13.3818880309742,-15.5537259159955,3.73556118202841,-7.00621597081945,-52.7555136363196,-3.32289615946721,56.9254025120677,-6.64128993381737,-25.8236033607928,9.26162840291436
5.90962529006361,-13.3750961388949,-15.5157757226346,3.66993823613861,-7.07179515343056,-52.4397075916682,-3.21457016084217,56.6863781316351,-6.3603237343937,-25.845470963854,9.1066062105643
5.7557537905768,-13.3641192842649,-15.4771072092059,3.60224303959949,-7.13550475140638,-52.1095189793971,-3.10122004041803,56.4189579804135,-6.08414140652748,-25.861779712147,8.96951228538966
5.60136552532645,-13.3488658693243,-15.4377770370139,3.53260461999649,-7.19704953761898,-51.7659725717043,-2.9830252838609,56.1233962302702,-5.81253191386017,-25.8708519683477,8.85153325855488
5.44901255773772,-13.3292952101031,-15.3978600995053,3.46117504995291,-7.25616539632658,-51.4101620379195,-2.86026378389238,55.8001877126156,-5.54532070966807,-25.8712406107588,8.75371639670803
5.3010213451295,-13.3054154587997,-15.3574502788783,3.38812995554485,-7.31262617957507,-51.0432355893312,-2.73331640067291,55.4500636545769,-5.28238093888699,-25.8617430812139,8.67696196115362
5.1594214720488,-13.2772806260844,-15.3166604731141,3.31366821517519,-7.36624853473492,-50.666382247491,-2.60266795888223,55.0739842298982,-5.02364255442478,-25.841411000065,8.62201754186957
5.02588141608579,-13.2449868693182,-15.2756218873531,3.23801085650375,-7.41689466332371,-50.2808189409263,-2.46890475526541,54.6731279693329,-4.76909924644233,-25.8095554496896,8.58947391872988
4.90165682466313,-13.2086682216179,-15.2344826286133,3.16139918324429,-7.46447304622386,-49.8877785691301,-2.33270874717006,54.2488781317105,-4.51881314526504,-25.765747998198,8.57976207769805
4.78755688892881,-13.168491935591,-15.1934056837376,3.08409218660575,-7.50893724234897,-49.488499108429,-2.19484867827914,53.802806197191,-4.27291730191482,-25.7098175298443,8.59315112833829
4.68393353789085,-13.124653606236,-15.1525663924845,3.00636331967574,-7.55028294045713,-49.0842137739649,-2.05616847591928,53.3366527065002,-4.03161598137041,-25.6418429771946,8.6297470130054
4.59069624477539,-13.0773722221532,-15.1121495481057,2.928496736739,-7.58854351362815,-48.6761421989081,-1.9175733214211,52.8523057317574,-3.79518282915263,-25.5621421028557,8.68949204369557
4.50735245025168,-13.0268852746285,-15.0723462658474,2.85078312098103,-7.62378438373426,-48.2654825503477,-1.78001384343044,52.3517773203912,-3.56395699943935,-25.4712565335289,8.77216542499251
4.43307048641848,-12.9734440320209,-15.0333507565623,2.77351524171644,-7.65609654234777,-47.8534044746867,-1.64446891183267,51.8371782981874,-3.33833736678278,-25.3699332931397,8.87738500649008
4.36675912363026,-12.91730906469,-14.9953571293547,2.69698339705505,-7.68558959439258,-47.4410427565036,-1.51192752353567,51.3106918520443,-3.11877498058565,-25.2591031317783,9.0046105549547
4.30715608481393,-12.8587460856921,-14.9585563258709,2.62147091000126,-7.71238469241659,-47.0294915835601,-1.38337027655082,50.7745463442532,-2.90576395631457,-25.1398560395495,9.15314884841179
4.2529174176716,-12.7980221550032,-14.9231332634521,2.54724985170349,-7.73660771143199,-46.6197993320751,-1.25975092444433,50.2309878408437,-2.69983102832944,-25.0134144837336,9.32216086901402
4.20270044110394,-12.7354022790258,-14.8892642395698,2.4745771589147,-7.75838297538925,-46.2129638143595,-1.14197848608985,49.6822528610526,-2.50152401825793,-24.8811050827443,9.51067130440939
4.15523472791887,-12.6711464218427,-14.8571146287521,2.40369128957764,-7.77782778683081,-45.8099279622893,-1.03090035467757,49.1305418638036,-2.31139950271976,-24.7443295737423,9.71758045983823
4.10937774417887,-12.6055069303248,-14.8268368866523,2.33480952172989,-7.79504793462063,-45.4115759526439,-0.927286804823561,48.5779939725894,-2.13000999647144,-24.6045359954094,9.94167854726006
4.06415386386009,-12.5387263629261,-14.7985688643419,2.2681259532089,-7.81013427059077,-45.0187298079762,-0.831817239955133,48.0266633997452,-1.95789099960528,-24.4631909763454,10.1816621729788
4.01877719533146,-12.4710357033148,-14.7724324291813,2.20381021158252,-7.8231603688033,-44.6321465209834,-0.745068460610518,47.4784979693691,-1.79554828132616,-24.3217539026495,10.4361527100702
3.97265985544411,-12.4026529353447,-14.748532385722,2.14200684139704,-7.83418122134899,-44.2525157469983,-0.667505172640741,46.9353200657366,-1.64344577495324,-24.181653563532,10.7037161270233
3.92540801750748,-12.3337819543346,-14.7269556887991,2.08283530286344,-7.84323288412355,-43.8804580922819,-0.599472893424399,46.3988102620588,-1.5019944305759,-24.0442676795548,10.9828837530801
3.87680833717936,-12.2646117899937,-14.7077709390887,2.02639049590818,-7.85033296233949,-43.5165240048384,-0.541193357111315,45.8704938193245,-1.37154231469001,-23.9109055415923,11.2721733970354
3.82680735017154,-12.195316117493,-14.6910281488419,1.97274371773706,-7.85548181574815,-43.1611932575218,-0.492762471842812,45.351730187364,-1.25236616992264,-23.7827938571377,11.5701102070402
3.77548625269028,-12.1260530338767,-14.6767587638291,1.92194396826099,-7.8586643634937,-42.8148750019603,-0.454150842524238,44.8437055858257,-1.14466456522248,-23.6610658221781,11.8752466719793
3.7230332065071,-12.0569650759437,-14.6649759274082,1.87401952964158,-7.85985237244575,-42.4779083634563,-0.425206832472919,44.3474286856959,-1.04855268712872,-23.54675338824,12.1861812203404
3.66971501067259,-11.9881794521916,-14.6556749733412,1.82897975610656,-7.85900711695129,-42.1505635393914,-0.405662083763229,43.8637293508128,-0.964058750501869,-23.4407826341548,12.501574961432
3.61584967961088,-11.9198084558245,-14.6488341347957,1.7868170135879,-7.85608230320722,-41.8330433577846,-0.395139345753881,43.3932603376858,-0.891121946546632,-23.3439720622147,12.820166224434
3.561781172549,-11.8519500197149,-14.6444154573027,1.74750870804742,-7.85102716148805,-41.5254852496337,-0.393162384082372,42.9365017950845,-0.82959180402391,-23.2570335352316,13.1407826689835
3.50785723155112,-11.7846883693311,-14.6423659026099,1.71101934251356,-7.84378962514749,-41.2279635868467,-0.399167674308283,42.4937683522767,-0.779228822132063,-23.18057547417,13.46235084841
3.45441100115676,-11.7180947271415,-14.6426186283704,1.67730254925513,-7.83431953351275,-40.9404923348318,-0.412517536602666,42.0652185355617,-0.73970624115589,-23.1151078509698,13.7839031870963
3.4017468198722,-11.6522280227108,-14.6450944263644,1.64630305414091,-7.82257181196357,-40.6630279668483,-0.432514342846653,41.6508662094985,-0.710612845422818,-23.0610484475945,14.1045823847812
3.35013029544142,-11.5871355673507,-14.6497033002581,1.61795854150011,-7.80850959071158,-40.3954725905126,-0.458415420307833,41.2505937058684,-0.691456734752198,-23.0187298313471,14.4236432973119
3.29978251054629,-11.5228536610944,-14.6563461626422,1.5922013957537,-7.79210721678577,-40.1376772478537,-0.489448278593061,40.8641662801141,-0.681670044901673,-22.9884065302536,14.7404523828217
3.25087796669896,-11.4594081119502,-14.6649166294272,1.56896029818018,-7.773353090084,-39.8894453662505,-0.524825791642031,40.4912475186839,-0.680614633580074,-22.9702619716212,15.0544848496957
3.20354567717157,-11.3968146607803,-14.6753028863448,1.54816165369962,-7.75225222508062,-39.6505363520008,-0.563760970978408,40.1314153102485,-0.68758876785086,-22.9644148507085,15.3653196904832
3.15787267938081,-11.3350793180716,-14.687389596555,1.52973081693705,-7.72882842135111,-39.4206693265729,-0.605480973116049,39.7841779925847,-0.701834845289388,-22.970924702424,15.6726328261815
3.11390916341957,-11.2741986304585,-14.7010598110162,1.51359308435876,-7.70312592786141,-39.1995270077748,-0.649240000677465,39.4489903001786,-0.722548151461331,-22.9897965373434,15.9761886171592
3.07167440991967,-11.2141599041312,-14.7161968369379,1.49967442421536,-7.67521050676115,-38.9867597361365,-0.694330790109622,39.1252687670303,-0.748886600684039,-23.0209844652972,16.2758300232212
3.0311627929997,-11.1549414178912,-14.7326860166266,1.48790192857174,-7.64516983478841,-38.7819896419785,-0.740094428759163,38.8124062810296,-0.779981332986143,-23.0643942754792,16.5714677180793
2.99234922151721,-11.0965126600798,-14.750416369596,1.47820398772859,-7.61311321548698,-38.5848149425059,-0.785928304791491,38.5097855339025,-0.814947961601735,-23.1198849921482,16.8630684853465
2.95519354788919,-11.0388346217764,-14.7692820539855,1.47051020168627,-7.57917060643868,-38.3948143538633,-0.83129206001626,38.2167911590828,-0.852898198244861,-23.1872694924799,17.1506432468539
2.9196436495442,-10.9818601750664,-14.7891836086219,1.46475105354126,-7.54349098990509,-38.2115516034537,-0.875711486946648,37.9328203977482,-0.892951540443011,-23.2663143536672,17.4342350988101
2.88563706500108,-10.9255345610269,-14.8100289440158,1.46085737694053,-7.50624013320921,-38.0345800336876,-0.918780386927687,37.6572921811029,-0.934246692108303,-23.356739170902,17.7139077509195
2.85310122844789,-10.8697960079741,-14.8317340575364,1.45875965680191,-7.46759779879412,-37.8634472967326,-0.960160482925588,37.3896545636147,-0.975952403930407,-23.4582156372453,17.9897347685417
2.82195248126787,-10.8145764965693,-14.854223453262,1.45838721126212,-7.42775447507829,-37.6977001452706,-0.999579553063546,37.1293904847228,-1.0172774580773,-23.5703667004571,18.2617899981537
2.7920941385662,-10.7598026838737,-14.8774302509078,1.45966731186645,-7.38690770903951,-37.5368893218786,-1.03682801214039,36.8760218743899,-1.05747957432993,-23.692766123463,18.5301395030149
2.76341395030126,-10.7053969918994,-14.9012959735156,1.46252430403503,-7.34525812954776,-37.3805745380776,-1.07175421106893,36.6291121529717,-1.09587307401436,-23.824938773872,18.7948352455402
2.73578132106717,-10.6512788568083,-14.925770013382,1.46687878719234,-7.30300525610351,-37.2283295155925,-1.10425874446199,36.388267212264,-1.1318351958661,-23.9663619395538,19.0559106327349
2.70904464407797,-10.5973661239265,-14.9508087910072,1.47264690421677,-7.26034319146693,-37.0797470410735,-1.13428805623458,36.1531350044879,-1.16481100780648,-24.1164679078872,19.313377911457
2.68302906988396,-10.5435765641464,-14.9763746405794,1.47973977706753,-7.2174563006979,-36.9344439654624,-1.161827618064,35.9234039073481,-1.1943168983143,-24.2746479662316,19.5672272876906
2.65753497646487,-10.4898294819354,-15.002434473394,1.48806311353788,-7.17451498544018,-36.7920660622099,-1.18689493266393,35.6988000705697,-1.21994266330276,-24.4402578860283,19.8174275665686
2.63233734251777,-10.4360473849365,-15.0289582835755,1.49751700103513,-7.13167167205243,-36.6522926442754,-1.20953258874466,35.4790839763971,-1.24135223331339,-24.6126248390007,20.0639280674878
2.6071861573132,-10.382157688122,-15.0559175666073,1.50799589736517,-7.08905714487991,-36.514840827497,-1.22980157043812,35.2640464595125,-1.25828311346757,-24.791055565074,20.3066615500919
2.58180793445504,-10.3280944281151,-15.0832837211197,1.51938882513453,-7.04677736854415,-36.3794693182488,-1.2477750004493,35.0535044300625,-1.2705446356786,-24.9748454879314,20.5455478849996
2.55590833751265,-10.2737999629273,-15.1110265002504,1.53157977470226,-7.00491095030943,-36.2459815988035,-1.26353247014629,34.8472965295178,-1.27801515071977,-25.163288377285,20.7804982177089
2.52917587513091,-10.2192266288727,-15.1391125722063,1.54444831946009,-6.96350738932399,-36.1142283879767,-1.2771550789008,34.6452789268937,-1.28063831759907,-25.3556860919244,21.0114194005537
2.50128658238676,-10.1643383215398,-15.1675042405113,1.55787044506253,-6.92258624000803,-35.9841092696882,-1.28872127012333,34.4473214350603,-1.27841867471413,-25.5513578979511,21.2382184922358
2.47190957292619,-10.1091119626839,-15.1961583626476,1.57171958965579,-6.88213728364375,-35.8555734064378,-1.29830351561935,34.2533040945171,-1.27141669143504,-25.7496488506147,21.4608071381255
2.44071332094902,-10.0535388098696,-15.2250254920026,1.58586788473488,-6.84212176192679,-35.7286192838859,-1.30596586643607,34.0631143365794,-1.25974349079096,-25.9499367847499,21.6791056573507
2.40737251124567,-9.99762556152106,-15.2540492531296,1.60018757666478,-6.80247468533214,-35.6032934632775,-1.31176236029954,33.8766448023444,-1.24355540248897,-26.151637591258,21.8930466944342
2.37157527726947,-9.94139520925319,-15.283165945311,1.61455259846719,-6.76310818923538,-35.4796883496927,-1.31573625497516,33.6937918609944,-1.22304845938412,-26.3542086280146,22.1025783466839
2.33303063028639,-9.88488759438821,-15.3123043562007,1.62884025173539,-6.72391586987426,-35.3579390160226,-1.31792004290328,33.5144548423626,-1.19845290397212,-26.5571502565315,22.3076667316907
2.29147586644152,-9.8281596367448,-15.3413857583447,1.64293295088813,-6.68477799005978,-35.2382191534331,-1.31833619289241,33.3385359741497,-1.17002773657415,-26.7600055759723,22.5082979885361
2.24668372346465,-9.77128521956393,-15.3703240577052,1.65671997677529,-6.6455674038434,-35.1207362466635,-1.31699855663263,33.1659409932767,-1.13805531979626,-26.9623584660726,22.7044797095808
