Finger Velocity,Scap_X,Scap_Y,Scap_Z,Shoulder horiz abd-adduction,Shoulder flexion-extension,Shoulder internal-external rotation,elbow flexion-extension,forearm pronation-supination,wrist flexion-extension,wrist radial-ulnar deviation
0.432752251249819,-13.3607083117142,-13.5445936203675,3.87782200848425,-4.83204176555086,-52.5340510314847,-3.87585269201512,49.0038720002842,-17.1072691306024,-29.0933620163576,12.7984210467531
0.844859703747025,-13.3388880031947,-13.5218380087178,3.92877514112676,-5.10434941610019,-52.4697325743389,-4.16806624363267,49.1561599585306,-16.9558354843901,-28.5905958851604,12.1767270037714
1.40545320596449,-13.3174481641639,-13.4975339382146,3.97690988680891,-5.38656780516527,-52.3894949351622,-4.47422989160698,49.3413659002054,-16.7859410249785,-28.0246733282834,11.4948699329344
2.05373608343148,-13.2966976054323,-13.4716274378177,4.02140155394333,-5.67674373059744,-52.291264191112,-4.79241916931243,49.5616240803033,-16.5970579718194,-27.3975883532322,10.7568308921822
2.77657422516962,-13.2769373241803,-13.4440537949534,4.06143209537697,-5.97277666361854,-52.1729270203391,-5.12047322542997,49.8188605442753,-16.3887757207812,-26.7123638039741,9.96764383044336
3.56826452697806,-13.2584532229075,-13.4147345443625,4.0962026350866,-6.27245675338277,-52.0323554991765,-5.45602443032302,50.1147616209694,-16.1608025300301,-25.9729234572607,9.13324666698436
4.42443076414075,-13.2415090020425,-13.383574526615,4.12494546176784,-6.57350665354623,-51.8674332509127,-5.79653364881969,50.4507453486821,-15.9129643925088,-25.1839240062273,8.26029679744503
5.34062848844731,-13.2263394236828,-13.3504591700689,4.14693520532861,-6.87362605111741,-51.6760824635267,-6.13933051218613,50.8279361932448,-15.6452010247611,-24.350557567019,7.35596189637319
6.31193668540272,-13.2131441245473,-13.3152521545492,4.16149895396359,-7.1705376354581,-51.4562912901006,-6.48165783474427,51.2471433688294,-15.3575589874648,-23.4783377638754,6.42769885291047
7.3328361718071,-13.2020821324652,-13.2777936094149,4.16802511213582,-7.46203312326563,-51.2061411720236,-6.82071913867333,51.7088430493766,-15.0501820674624,-22.5728836698584,5.48303447226397
8.39719521619517,-13.1932672166208,-13.2378989822727,4.1659708423952,-7.74601786318555,-50.9238336749876,-7.15372808171627,52.2131647545097,-14.7232992039313,-21.6397157335193,4.5293610492304
9.49830499012932,-13.1867641800552,-13.1953586878434,4.15486797595541,-8.02055250050817,-50.6077164890461,-7.47795843861176,52.7598822012624,-14.3772104377629,-20.6840763242975,3.57375809889519
10.6289429101221,-13.1825861841554,-13.1499386107243,4.13432731765541,-8.28389021117291,-50.256308302683,-7.79079318438658,53.348408925242,-14.0122715935175,-19.7107849025496,2.62284864413475
11.781453891677,-13.1806931776753,-13.1013814930438,4.10404130981387,-8.5345081327238,-49.8683223046442,-8.08977118526436,53.9777989828952,-13.6288786373148,-18.7241344445822,1.68269490991224
12.9478440278695,-13.1809914847907,-13.0494091913428,4.06378505660984,-8.77113183479191,-49.4426880873168,-8.37263003694955,54.6467530360345,-13.227452849287,-17.7278320809766,0.758734542259971
14.1198830208522,-13.1833345852816,-12.9937257411609,4.01341574680331,-8.99275197713139,-48.9785717167873,-8.63734370742783,55.3536300728476,-12.8084280628315,-16.7249833826207,-0.144244974949618
15.2892124690313,-13.1875250939094,-12.9340211287454,3.95287054919597,-9.19863267959388,-48.4753936971051,-8.88215383857452,56.0964649206882,-12.3722412184887,-15.7181167218269,-1.02209881068415
16.4474574623818,-13.1933179162271,-12.8699756423479,3.88216309316409,-9.3883115442897,-47.9328444956209,-9.10559382447896,56.8729915492063,-11.9193273382915,-14.709241857789,-1.87129118175496
17.5863391169753,-13.2004245267693,-12.8012646630278,3.80137868489663,-9.56159168768801,-47.3508972259508,-9.30650509192399,57.6806719555003,-11.4501197530087,-13.6999353723521,-2.68884361231714
18.6977857987176,-13.2085182849011,-12.7275637553407,3.71066844537038,-9.71852652247888,-46.7298170244234,-9.48404533192896,58.5167301844346,-10.9650560355004,-12.6914447323531,-3.47227313141452
19.7740408967522,-13.2172406742125,-12.6485539276655,3.61024258491948,-9.85939834791963,-46.0701666241057,-9.63768874538797,59.3781907906758,-10.4645896411325,-11.6848024943229,-4.21952786729325
20.8077651327931,-13.2262083225095,-12.5639269457693,3.50036304991699,-9.98469204998997,-45.3728076390082,-9.76721865320733,60.2619208189705,-9.94920676637882,-10.6809424344899,-4.92892629581977
21.7921315441181,-13.2350206306365,-12.4733905984917,3.38133579071221,-10.0950653755179,-44.6388971200526,-9.87271306998307,61.1646741883062,-9.4194474486419,-9.68081010957106,-5.59910478979346
22.7209114583129,-13.2432678112978,-12.3766738288477,3.25350290868784,-10.1913173225237,-43.8698790296989,-9.95452403878342,62.0831372316023,-8.87592948772285,-8.68546142748709,-6.22897631195029
23.5885499862862,-13.2505391184437,-12.2735316540332,3.11723494465638,-10.2743561730719,-43.0674704039396,-10.0132516645271,63.0139740767869,-8.31937341734836,-7.69614411494879,-6.81770131670063
24.390229793359,-13.2564310385993,-12.1637498001304,2.97292356797154,-10.3451685807024,-42.2336421316057,-10.0497138652489,63.9538705625615,-7.75062653008154,-6.71435841001761,-7.36467035228655
25.1219221616612,-13.2605552196415,-12.0471489709983,2.8209749106623,-10.404790921898,-41.370594479532,-10.064912893743,64.8995754636777,-7.17068388229148,-5.7418947923969,-7.86949660787966
25.7804246250504,-13.2625459286708,-11.923588659586,2.66180376054331,-10.4542838516061,-40.4807277182841,-10.059999680761,65.8479379534258,-6.58070429073227,-4.78084800548572,-8.33201580059233
26.363384734241,-13.2620668563876,-11.7929704003864,2.49582878388716,-10.4947106926973,-39.5666084402959,-10.0362370302652,66.7959404453203,-5.9820195856906,-3.83360796232131,-8.75229036389906
26.8693097885903,-13.2588171178333,-11.6552403604344,2.32346889742823,-10.5271199666146,-38.6309323884022,-9.99496266929279,67.7407262122561,-5.37613579611693,-2.90282933357779,-9.13061485146882
27.2975626459662,-13.2525363341485,-11.5103911765052,2.14514085500751,-10.5525320668496,-37.6764848050617,-9.93755312376317,68.6796214556112,-4.76472547287958,-1.99138266083078,-9.46751975087928
27.6483439875935,-13.2430087121382,-11.3584629679751,1.96125805668554,-10.5719298150367,-36.7060994528622,-9.86538935266795,69.6101517665897,-4.14961095553621,-1.10229068378398,-9.76377143663155
27.9226616655635,-13.2300660651345,-11.1995434857729,1.77223052829719,-10.5862524402783,-35.7226175332118,-9.77982501968684,70.5300531690557,-3.53273900024928,-0.238654174345294,-10.0203666939039
28.1222879922898,-13.2135897409626,-11.0337673929836,1.57846596044554,-10.5963923947557,-34.7288477373907,-9.68215820824619,71.4372781432843,-2.91614775643586,0.596428118492718,-10.2385210187053
28.2497060398639,-13.1935114438558,-10.861314704476,1.38037164243515,-10.603194362683,-33.7275286060142,-9.57360728870509,72.3299971957118,-2.30192755702804,1.39994083052863,-10.4196506518393
28.3080462000932,-13.1698129590593,-10.682408434274,1.17835708260626,-10.6074558279855,-32.7212942608383,-9.45529152103629,73.2065966580717,-1.69217733360346,2.16903039678622,-10.5653489459429
28.3010144108634,-13.1425248120214,-10.49731150744,0.972837075098039,-10.6099286241316,-31.7126444222533,-9.32821682590055,74.0656734695303,-1.0889586657278,2.90107681670427,-10.6773581358945
28.2328135799595,-13.111723917826,-10.3063229907515,0.76423495715555,-10.6113209759567,-30.7039194503087,-9.19326699150111,74.9060277188027,-0.49424953120981,3.59375578246757,-10.7575378705405
28.1080598327845,-13.0775302998132,-10.1097736904865,0.552985802509045,-10.6122996365167,-29.6972809524595,-9.05120041210341,75.7266537032186,0.0901002359723644,4.2450890437,-10.8078319969374
27.9316952751119,-13.0401029775431,-9.90802116453571,0.339539313542857,-10.6134918092378,-28.6946982856648,-8.90265227649036,76.5267302028786,0.662409928459891,4.85348186131572,-10.8302351033323
27.7088989958357,-12.9996351412304,-9.70144420661284,0.124362202033025,-10.6154866254412,-27.6979410428809,-8.74814193415109,77.3056105757995,1.22120377326287,5.41774740714333,-10.8267602405092
27.444998037299,-12.9563487408602,-9.49043688563115,-0.0920601223801785,-10.6188360228751,-26.7085773612276,-8.58808496063649,78.0628131618001,1.76524024997287,5.93711884783538,-10.7994090546239
27.145380031571,-12.9104886240853,-9.27540226119982,-0.309222709682593,-10.6240549415328,-25.7279776376416,-8.42280923019654,78.7980123477152,2.29353394866362,6.41125048812372,-10.7501452940689
26.8154091389354,-12.8623163601457,-9.05674593824851,-0.526601200589556,-10.6316208148428,-24.7573230105701,-8.25257410587314,79.5110305024461,2.80536935844192,6.84020971132842,-10.6808723429421
26.460346828391,-12.8121038877695,-8.83486965768902,-0.743653028265008,-10.6419723886516,-23.7976177856015,-8.07759170467912,80.2018308453136,3.30030634072731,7.22446159629866,-10.5934151315654
26.0852789074521,-12.7601271200981,-8.61016513556551,-0.959819746799948,-10.65550795552,-22.8497048644669,-7.89804911429043,80.8705111766272,3.77817739464816,7.56484806988332,-10.4895065012852
25.6950500385103,-12.706659627269,-8.38300835642402,-1.17453049105889,-10.6725831522536,-21.9142831876092,-7.71413043765895,81.5172982896143,4.23907714984543,7.86256331739987,-10.3707778610478
25.2942067709184,-12.6519665012529,-8.15375449915551,-1.38720651570338,-10.6935085260784,-20.9919262192518,-7.52603761462931,82.1425428064582,4.68334480420932,8.11912696276722,-10.2387537753997
24.886949873017,-12.5962984948033,-7.92273362976086,-1.59726670615353,-10.7185471121407,-20.0831005813712,-7.33400909830613,82.7467141347686,5.11154044534534,8.33635627442549,-10.094849977581
24.4770964705091,-12.5398865207255,-7.69024724210156,-1.80413390515501,-10.7479122680805,-19.1881840643098,-7.13833563564996,83.3303952151781,5.52441634890905,8.51633836194067,-9.94037420789901
24.0680521944555,-12.4829365977059,-7.45656567366298,-2.00724185601357,-10.781765980386,-18.3074823885627,-6.93937260750676,83.8942767223942,5.9228844350872,8.66140300717792,-9.77652922904966
23.6627932253606,-12.4256253302562,-7.22192637779936,-2.20604252714539,-10.8202178050671,-17.4412442453964,-6.73754861003366,84.4391503945388,6.30798109281813,8.7740964401851,-9.60441736080399
23.2638578049813,-12.3680960083899,-6.98653300269178,-2.40001355497938,-10.8633245472447,-16.5896742882922,-6.53337018716339,84.965901202157,6.68083056218775,8.85715605403963,-9.42504590835933
22.873346493464,-12.3104554046973,-6.75055521037652,-2.58866552965163,-10.9110907312977,-15.7529438753102,-6.32742282763411,85.4754981273108,7.04260801492005,8.91348579309123,-9.23933293398164
22.4929301965198,-12.2527713324522,-6.51412916141047,-2.77154885636496,-10.9634698712855,-14.9311994745119,-6.12036849694168,85.9689833999662,7.39450340538151,8.94613177460549,-9.04811293027646
22.1238647951678,-12.1950710104094,-6.27735858491917,-2.94825995557517,-11.0203665216176,-14.1245687456531,-5.91294007285109,86.447460126805,7.73768708630095,8.95825762392149,-8.85214207119955
21.7670110951729,-12.1373402610932,-6.04031634522358,-3.11844661140895,-11.081639066163,-13.3331644066437,-5.7059331016135,86.9120783380338,8.07327809108522,8.95311901241561,-8.65210281966329
21.4228587846781,-12.0795235532247,-5.80304640506202,-3.28181233119633,-11.1471031823331,-12.5570860839061,-5.50019531436688,87.364019563014,8.40231587087616,8.93403697293986,-8.44860775060578
21.0915531486064,-12.0215248892631,-5.56556607549037,-3.43811963349207,-11.2165358874952,-11.7964204278731,-5.29661435988232,87.8044801225813,8.7257361350504,8.90436971047475,-8.2422025144335
20.7729234300478,-11.9632095375065,-5.3278684376232,-3.58719223389484,-11.2896800372488,-11.0512398403051,-5.0961042245156,88.2346533952267,9.04435128204547,8.86748280392348,-8.03336793133549
20.4665119362443,-11.9044066119964,-5.08992482221403,-3.72891614305781,-11.3662491082893,-10.3216001986724,-4.89959081279558,88.6557113755353,9.35883573528387,8.82671788378219,-7.82252128279981
20.1716032370993,-11.8449125064757,-4.85168723903106,-3.86323972483693,-11.4459320767638,-9.60753796774249,-4.70799714288461,89.0687858937845,9.66971633076073,8.785360048594,-7.61001695551618
19.8872530702483,-11.784495185016,-4.61309066055059,-3.99017278262411,-11.5283982025339,-8.90906706122735,-4.52222857104742,89.4749499024441,9.97736774520405,8.74660443505628,-7.3961466842183
19.6123168206245,-11.7228993179867,-4.37405508634646,-4.10978475002115,-11.6133015475527,-8.22617576583837,-4.34315840760684,89.875199257213,10.2820128061361,8.71352246720824,-7.18113971379891
19.3454776586809,-11.659852226463,-4.13448734568021,-4.22220206238025,-11.7002850884934,-7.55882397664798,-4.17161423224952,90.2704354275647,10.5837273898703,8.68902836815636,-6.96516323758517
19.0852745800677,-11.5950705627776,-3.89428263294463,-4.327604785854,-11.788984327704,-6.90694092298309,-4.00836516046227,90.6614495653906,10.8824494992395,8.67584652768687,-6.74832345671039
18.8301306782931,-11.528267615772,-3.65332580972865,-4.42622258847547,-11.8790303573335,-6.27042349308401,-3.85411025254974,91.0489083410271,11.1779920275819,8.67648029536212,-6.53066754693954
18.5783819969451,-11.4591610944607,-3.41149254388302,-4.51833015443213,-11.9700523788652,-5.64913520127149,-3.70946819465441,91.4333419247893,11.4700586570618,8.69318272196027,-6.31218672762939
18.3283072538853,-11.3874812185522,-3.16865038441229,-4.60424215919774,-12.061679714527,-5.04290579361482,-3.57496833010033,91.8151344497985,11.7582622957434,8.72792970833919,-6.09282052161874
18.0781586178627,-11.3129789282875,-2.92465988633534,-4.68430792909703,-12.1535433657792,-4.45153146237129,-3.451043091933,92.1945172389179,12.0421454182775,8.78239594616277,-5.87246219644181
17.8261935645403,-11.235434015509,-2.67937590014147,-4.75890590221194,-12.2452771840085,-3.87477563091642,-3.33802188259118,92.5715650164947,12.3212016402349,8.85793395692378,-5.65096530783724
17.5707076627618,-11.1546629693892,-2.43264912767153,-4.82843799450477,-12.3365187288642,-3.31237027002478,-3.23612645119751,92.9461952571503,12.5948978337348,8.95555646362093,-5.42815123686673
17.3100679618978,-11.0705263232997,-2.18432802352188,-4.89332396248707,-12.4269099033063,-2.76401770830075,-3.1454678222782,93.3181707520518,12.8626960856016,9.07592227407724,-5.20381761448194
17.0427464842555,-10.9829352864786,-1.93426109267627,-4.95399584468263,-12.5160974665738,-2.22939290369372,-3.06604482946634,93.6871053996074,13.1240748082838,9.21932582700205,-4.97774754202573
16.7673531863998,-10.8918574499718,-1.6822996052275,-5.01089255829521,-12.6037335298127,-1.70814614687015,-2.99774430443183,94.0524731518361,13.3785483410434,9.38569055962865,-4.7497195228881
16.4826676492288,-10.7973213748109,-1.42830072031597,-5.06445472327684,-12.6894761299342,-1.19990616629032,-2.94034296388822,94.4136199684336,13.6256844307281,9.5745662978752,-4.51951800719285
16.1876686938888,-10.6994199022245,-1.17213098383997,-5.11511978048689,-12.7729899566021,-0.704283597544595,-2.89351102435793,94.769778548681,13.8651190605244,9.78513092938108,-4.28694441308401
15.8815611002888,-10.5983120670983,-0.913670137317252,-5.16331746030818,-12.8539472805547,-0.220874768097589,-2.85681755429365,95.1200855309502,14.0965681973185,10.0161966666758,-4.05182842559679
15.5637986250678,-10.4942235410533,-0.65281514945721,-5.20946564080166,-12.9320291047621,0.25073426437233,-2.82973754575058,95.4636007763547,14.3198361462021,10.2662212128322,-3.81403929702246
15.234102572099,-10.3874455760837,-0.389484359585665,-5.25396661064966,-13.0069265360362,0.710963495190207,-2.81166065470201,95.7993282905649,14.5348203282542,10.5333240908732,-3.57349680293196
14.8924752553251,-10.2783324621504,-0.123621603860779,-5.29720372547747,-13.0783423519281,1.16023466419501,-2.80190152395555,96.1262382855374,14.7415124286137,10.8153082946097,-3.33018147254569
14.5392078047546,-10.1672975523692,0.144799818686306,-5.33953842517364,-13.145992713034,1.5989669478676,-2.79971156639131,96.4432898402232,14.9399959861719,11.1096872758557,-3.08414372496512
14.1748818957824,-10.0548079469787,0.415773491740386,-5.38130757432304,-13.2096089463691,2.02757274145371,-2.80429204342888,96.7494535892914,15.1304406078302,11.4137171190297,-2.83551159083222
13.8003651242844,-9.94137796048927,0.689256692141548,-5.42282109985766,-13.2689393103959,2.4464536118618,-2.81480821802674,97.0437338563575,15.3130930948046,11.7244335922679,-2.58449675157934
13.4167999007878,-9.827561523933,0.965167813473426,-5.46435992142214,-13.3237506549757,2.8559964935743,-2.83040429486211,97.3251896559296,15.4882658754467,12.0386936284312,-2.33139866280341
13.0255858932407,-9.71394369763293,1.24338454008914,-5.50617419171013,-13.3738299085104,3.25657019336058,-2.85021879152064,97.5929540175399,15.6563232467414,12.3532206922517,-2.07660654268272
12.6283562075358,-9.60113149317592,1.52374289169099,-5.54848188368291,-13.4189853498439,3.64852226191746,-2.87339992285519,97.8462511380689,15.8176660199121,12.6646534199508,-1.82059901668314
12.226947657238,-9.48974422638248,1.80603723439813,-5.59146777907642,-13.4590476454493,4.03217627934933,-2.89912053351828,98.0844109447065,15.9727152286517,12.969596839373,-1.56394124323824
11.8233656391997,-9.38040363946045,2.09002132209343,-5.63528292423236,-13.4938706523017,4.40782959054772,-2.92659208710819,98.3068807471654,16.1218955861893,13.2646753535629,-1.30727942909651
11.4197443008736,-9.27372403297217,2.3754103920256,-5.68004461976806,-13.5233320068199,4.77575152274081,-2.955077218811,98.5132337653746,16.2656193736477,13.546586492671,-1.05133278576551
11.0183028591368,-9.17030263621016,2.66188429338955,-5.7258369980442,-13.5473335410194,5.13618212367965,-2.98390038527236,98.7031744297666,16.4042714104786,13.8121542511465,-0.796883157794544
10.6212991093275,-9.07071042320859,2.94909157983104,-5.77271221865402,-13.5658015851169,5.48933147202234,-3.01245620515033,98.8765404596536,16.538195694049,14.0583806956235,-0.544762732044277
10.2309813445544,-8.97548355521174,3.23665444959722,-5.8206922808137,-13.5786872252279,5.83537962247664,-3.04021518163681,99.0333018267484,16.6676841901877,14.2824944990827,-0.295840386023416
9.84954008246345,-8.88511559989641,3.52417437625562,-5.86977141605806,-13.5859665793984,6.17447724434571,-3.06672663593555,99.1735568019926,16.7929681075596,14.4819951378955,-0.0510073369346404
9.47906115646237,-8.80005064424213,3.8112382485101,-5.91991898694204,-13.5876411338421,6.50674698384504,-3.09161884934721,99.2975253618087,16.9142118138274,14.6546916683025,0.188837201096484
9.12148184972359,-8.72067738650123,4.09742483686076,-5.97108277871921,-13.5837381501083,6.83228553074252,-3.1145965887635,99.4055402929481,17.0315093833518,14.7987352528261,0.422799661423842
8.77855180319034,-8.64732426928875,4.38231142282135,-6.02319253465043,-13.5743111226467,7.15116631412706,-3.13543634866003,99.4980363830851,17.1448836326469,14.9126448934362,0.65000445279602
8.45180037641796,-8.58025570281658,4.66548044846567,-6.07616355862853,-13.559440242299,7.46344270852873,-3.15397976230625,99.5755381187932,17.2542874124819,14.995326101583,0.869604467300437
8.1425119437168,-8.51966942236984,4.94652605791205,-6.12990020037077,-13.5392328075101,7.76915160988344,-3.17012570622529,99.6386463349135,17.3596068829864,15.0460824704571,1.08078941782176
7.85171023653121,-8.46569502217477,5.22506040431665,-6.18429905695924,-13.5138235213768,8.06831724012856,-3.18382164050038,99.6880242687383,17.4606664908609,15.0646203078156,1.28279184200506
7.58015228511332,-8.41839370257579,5.50071958903095,-6.23925177204079,-13.4833746191847,8.36095505218957,-3.19505469527107,99.724383466398,17.5572353800713,15.0510466350988,1.47489081453196
7.32833179038349,-8.37775925327785,5.77316909121762,-6.29464738119199,-13.4480757887341,8.64707562380144,-3.20384294431271,99.7484699661496,17.649034983727,15.0058609525732,1.65641360523144
