Finger Velocity,Scap_X,Scap_Y,Scap_Z,Shoulder horiz abd-adduction,Shoulder flexion-extension,Shoulder internal-external rotation,elbow flexion-extension,forearm pronation-supination,wrist flexion-extension,wrist radial-ulnar deviation
1.06150666448316,-14.744822532253,-14.9969788655403,3.94271458860994,-3.03885345801314,-54.6067509851181,-2.93758545553179,53.7078502985186,-17.9953259956165,-32.263648627849,16.4947174999898
1.26698059126956,-14.740634841922,-15.0320933918274,4.01267844646907,-3.17851863157965,-54.5734469499396,-3.10771144265362,53.7591813737552,-17.7964952892522,-31.9291112470877,16.3594667554751
1.48846927723133,-14.7377559114261,-15.0669531190124,4.08197457933113,-3.32060675014465,-54.5453997425128,-3.27468643077125,53.8216691525736,-17.5853249776273,-31.5689667064951,16.21242218231
1.72490992200157,-14.7364124874011,-15.1012745527864,4.15008802048884,-3.46452827141185,-54.5232163094345,-3.43699566056097,53.8958992347325,-17.3624717270404,-31.1854070068557,16.0542682348956
1.97514837673949,-14.7368250439257,-15.1347875227187,4.21651543995306,-3.60971870140401,-54.5074185979894,-3.59317034394935,53.9823413510689,-17.1286940372098,-30.7810949909697,15.8858547002353
2.23790775732335,-14.7392029665121,-15.1672397291109,4.28077295068912,-3.75565086562331,-54.4984263770057,-3.74181389644616,54.0813327836299,-16.8848386175986,-30.3591299194636,15.7081745941109
2.51177482324094,-14.7437398017649,-15.1984005426832,4.34240329994319,-3.90184580928279,-54.4965414740058,-3.88162667288083,54.1930629659225,-16.631825417192,-29.923000005739,15.5223365662833
2.79519712055493,-14.7506087083461,-15.2280639797929,4.40098226429467,-4.04788197722346,-54.5019338719885,-4.01142859772226,54.3175595825438,-16.3706316846567,-29.4765225842824,15.3295329851645
3.08648723889093,-14.7599582324327,-15.2560508129559,4.4561241085401,-4.19340241128888,-54.5146300631838,-4.13017915551215,54.45467647792,-16.1022754199415,-29.0237731646613,15.1310052628269
3.38383215732957,-14.7719085124323,-15.2822098120021,4.50748601378117,-4.33811980090173,-54.53450399736,-4.23699429520357,54.6040836721427,-15.827798559192,-28.5690052241003,14.9280082804321
3.68530646870519,-14.7865479965099,-15.3064181438895,4.55477142419729,-4.48181931862745,-54.5612708925103,-4.33115989575856,54.7652597673277,-15.5482502164909,-28.1165631710146,14.7217759320285
3.9888886906135,-14.8039307353506,-15.3285809882689,4.59773230228423,-4.62435925976163,-54.5944840988276,-4.41214153541906,54.9374870099001,-15.2646702868137,-27.670791395494,14.5134897805881
4.29248008954598,-14.8240742933243,-15.3486304506861,4.6361703177239,-4.76566958199633,-54.6335351250247,-4.47959040217349,55.119849252336,-14.9780736913951,-27.235942623288,14.3042525917448
4.59392555769831,-14.8469583045337,-15.3665238749789,4.66993702503205,-4.90574850815527,-54.6776568518199,-4.53334527624722,55.3112330312972,-14.6894355192074,-26.8160888492505,14.0950680896045
4.89103613898329,-14.8725236856481,-15.3822416696073,4.69893311002954,-5.04465741149981,-54.7259298747932,-4.573430605301,55.5103319452685,-14.3996772914388,-26.4150379422888,13.8868277166845
5.18161282751969,-14.9006725038056,-15.3957847679642,4.72310680591606,-5.18251424826441,-54.7772918428286,-4.60005077914989,55.7156544699851,-14.109654557019,-26.0362586378252,13.6803045592122
5.46347127263483,-14.9312684843498,-15.4071718399553,4.74245159605116,-5.31948583502301,-54.8305495923994,-4.61358079405661,55.9255352910185,-13.8201460192511,-25.6828161291434,13.4761540050247
5.7344670273746,-14.9641381299142,-15.4164363634102,4.75700333016692,-5.45577928868811,-54.8843938218209,-4.61455357801327,56.1381501585994,-13.5318443917309,-25.357319861737,13.2749201875093
5.99252097751106,-14.9990724105302,-15.4236236526063,4.76683688148214,-5.59163295360295,-54.9374160015309,-4.60364432800832,56.3515341801373,-13.2453491781945,-25.0618844318313,13.0770468618195
6.23564458807564,-15.0358289753979,-15.4287879298776,4.77206246481131,-5.72730713162934,-54.9881271765434,-4.58165228593723,56.5636033623984,-12.9611615613694,-24.7981037583022,12.8828910994457
6.46196460644636,-15.0741348310441,-15.4319895156937,4.77282172356108,-5.86307490619893,-55.0349782866654,-4.5494804466153,56.7721791025031,-12.6796815694981,-24.567038073959,12.6927381318206
6.66974686624449,-15.1136894268311,-15.4332922030389,4.76928367981261,-5.99921331146279,-55.0763816079381,-4.50811374339318,56.9750152133081,-12.4012076637256,-24.3692128809476,12.5068158468222
6.85741884558581,-15.1541680860762,-15.4327608738972,4.7616406283914,-6.13599504676122,-55.1107329025871,-4.45859629016416,57.169826964858,-12.1259388489294,-24.204628845396,12.325307798617
7.02359064710982,-15.1952257190096,-15.4304594093002,4.75010404373533,-6.27368087889901,-55.1364338545607,-4.40200827202644,57.354321539139,-11.8539793488094,-24.0727815917422,12.1483640356572
7.167074085958,-15.2365007525197,-15.4264489387344,4.7349005577694,-6.41251281436591,-55.1519143678879,-4.33944307158604,57.5262292373755,-11.5853458030991,-23.9726904088579,11.9761094871203
7.28689959554236,-15.2776192112884,-15.4207864681248,4.71626805780065,-6.55270806534052,-55.1556543204265,-4.27198519519756,57.6833347506459,-11.3199768477959,-23.9029349427163,11.8086500132873
7.38233068937346,-15.3181988857025,-15.4135239165728,4.69445194554191,-6.6944537824532,-55.1462043970584,-4.20068952432992,57.8235078041943,-11.0577448386969,-23.8616989807347,11.6460764883431
7.45287575000095,-15.3578535241251,-15.4047075794881,4.66970159225911,-6.83790249010852,-55.1222056708977,-4.12656236368101,57.9447325091729,-10.7984693834588,-23.8468203849246,11.4884674275282
7.49829695260806,-15.3961969909124,-15.3943780194594,4.64226702192011,-6.98316814269219,-55.0824076535379,-4.05054469346617,58.0451347981844,-10.5419322637678,-23.855846096657,11.3358907042751
7.51861617006377,-15.4328473371762,-15.3825703672374,4.61239585511029,-7.1303227251809,-55.0256845904087,-3.97349796327164,58.1230073804208,-10.2878932594124,-23.8860909617085,11.1884048654814
7.51411774703765,-15.467430738664,-15.3693149958845,4.5803305507893,-7.27939334726346,-54.9510498302305,-3.89619269265103,58.1768317278516,-10.0361063316252,-23.9346989646435,11.0460604815175
7.48534807155655,-15.4995852629485,-15.3546385145887,4.5463059874273,-7.43035981841822,-54.8576681445728,-3.81930006881474,58.2052966947531,-9.78633559001087,-23.9987053478316,10.9089018784645
7.43311191120822,-15.5289644338194,-15.3385650178593,4.51054742476104,-7.58315273221793,-54.7448659118332,-3.74338665042592,58.2073134755673,-9.53837046733261,-24.0750980456539,10.7769694985912
7.35846551578734,-15.5552405626033,-15.3211175220531,4.4732688793962,-7.73765212396332,-54.6121391085465,-3.66891219792945,58.1820267153216,-9.29203956927878,-24.1608769119905,10.6503030264403
7.26270651589878,-15.578107815026,-15.3023195228513,4.43467193289001,-7.89368679461862,-54.4591590712225,-3.59623056100317,58.1288216963745,-9.0472227499054,-24.2531093564129,10.5289453052766
7.14736066495736,-15.5972849808141,-15.2821966110653,4.39494497311348,-8.0510344151945,-54.2857760066558,-3.52559346913079,58.0473276281203,-8.80386107041203,-24.3489811936339,10.4129469532799
7.01416547710167,-15.6125179136783,-15.2607780871687,4.35426285140923,-8.20942253348906,-54.0920202412188,-3.45715699251824,57.9374171559481,-8.56196440435676,-24.4458417215734,10.3023714822542
6.8650508029001,-15.6235816125174,-15.2380985162999,4.31278692103049,-8.36853058990761,-53.8781012143385,-3.39099036453437,57.7992022788813,-8.32161653862375,-24.54124228232,10.1973006449358
6.70211635623191,-15.6302819206947,-15.214199166108,4.27066540780615,-8.52799300618156,-53.6444042416015,-3.32708678272376,57.6330269227799,-8.08297768780128,-24.6329678292753,10.0978396977382
6.52760615890344,-15.6324568288669,-15.1891292715385,4.22803405312748,-8.68740334670689,-53.3914850982084,-3.2653757371854,57.4394564603881,-7.84628440668368,-24.7190612867235,10.0041222503151
6.34387980702688,-15.6299773777819,-15.1629470746186,4.18501696267406,-8.84631948088729,-53.1200625008255,-3.20573636004938,57.2192645029444,-7.61184696273147,-24.7978407062253,9.91631436888464
6.15338039271639,-15.6227481696985,-15.1357205932771,4.14172759109439,-9.00426960926494,-52.8310085941604,-3.14801125620275,56.9734173127734,-7.38004430929426,-24.8679093950857,9.83461761074934
5.95859885180193,-15.6107075090773,-15.1075280802797,4.09826979290416,-9.16075896486296,-52.5253375797065,-3.09202027149834,56.7030562056372,-7.15131686479076,-24.9281593355102,9.75927070516202
5.76203447926745,-15.5938272033863,-15.0784581414431,4.05473887497062,-9.31527696911959,-52.2041926588991,-3.03757368578098,56.4094783291511,-6.9261573492849,-24.9777683433484,9.69054966592511
5.56615139809591,-15.5721120619898,-15.0486094932554,4.01122259720448,-9.46730460975754,-51.868831498653,-2.98448438106646,56.0941162215514,-6.70509996853536,-25.0161915363202,9.62876621418651
5.37333093571571,-15.545599134061,-15.0180903564164,3.96780208304598,-9.61632181265942,-51.5206104587637,-2.93257861834673,55.7585165738158,-6.48870827482246,-25.0431477887379,9.57426448686252
5.18582021338299,-15.5143567249501,-14.9870175041326,3.92455261672544,-9.76181459887362,-51.1609678437838,-2.88170514859087,55.4043186338433,-6.27756207150918,-25.058601929729,9.52741609457738
5.00567783727273,-15.478483225159,-14.9555150092594,3.88154431932722,-9.90328185064302,-50.7914064551129,-2.83174247936442,55.0332326948007,-6.07224375882416,-25.0627434790229,9.48861367361412
4.83471841080803,-15.438105778146,-14.9237127573779,3.83884271011099,-10.0402415524221,-50.4134757229766,-2.78260421314923,54.6470190903652,-5.87332453899611,-25.0559627026583,9.4582631526305
4.67445861105041,-15.3933788036421,-14.8917448084304,3.79650917091668,-10.172236414626,-50.0287536951058,-2.73424245854006,54.2474680734177,-5.68135090714585,-25.0388247268365,9.43677502409063
4.52606863028489,-15.3444823835843,-14.8597476938207,3.75460133699614,-10.2988388210568,-49.6388291523134,-2.68664938523373,53.8363808859906,-5.49683184458512,-25.0120424047042,9.42455496744532
4.39033360789345,-15.2916205104522,-14.827858727955,3.71317343710997,-10.4196550637675,-49.2452841129265,-2.63985704973955,53.4155522442938,-5.32022709725061,-24.9764486062553,9.42199421303147
4.26762992671049,-15.235019194383,-14.7962143964376,3.67227660154866,-10.5343288445487,-48.8496769776325,-2.59393566495406,52.9867543707274,-5.151936862848,-24.9329685814185,9.42946005664515
4.15792061450253,-15.1749244257415,-14.7649488640659,3.63195915178421,-10.6425440345638,-48.4535265514226,-2.5489905236442,52.551722614985,-4.99229313141555,-24.8825930102973,9.44728692392714
4.06077244538085,-15.1115999925221,-14.7341926296421,3.59226688222013,-10.7440266971245,-48.0582971587713,-2.50515781254884,52.1121426321738,-4.84155283541533,-24.8263523017923,9.47576833483483
3.9753948485884,-15.0453251558255,-14.7040713423047,3.5532433443921,-10.8385463957932,-47.665385042923,-2.46259957069769,51.6696390370182,-4.6998928789041,-24.765292641222,9.51515004127361
3.90069789084042,-14.976392190645,-14.6747047836933,3.51493014588053,-10.9259168294445,-47.2761062115568,-2.4214980513347,51.2257654283083,-4.56740704155226,-24.7004542248777,9.56562452929636
3.83536407492658,-14.9051038024314,-14.6462060106885,3.47736727627294,-11.0059958519961,-46.8916858598988,-2.38204973635388,50.7819956682053,-4.44410469954295,-24.6328520607935,9.6273270114525
3.77792710752073,-14.8317704321022,-14.6186806457141,3.4405934674714,-11.0786849426921,-46.5132494685223,-2.3444592225873,50.3397163010006,-4.32991127436753,-24.5634596608407,9.70033298420734
3.72685046382348,-14.7567074642714,-14.5922262974923,3.40464658614901,-11.143928194313,-46.1418156361658,-2.30893315620277,49.9002200056113,-4.22467030893517,-24.4931958851953,9.78465737254778
3.6805994607735,-14.6802323571742,-14.5669320954579,3.36956404644739,-11.2017108863894,-45.7782906684571,-2.27567434629959,49.4646999957715,-4.12814706867991,-24.4229151067847,9.8802552177221
3.63770227169448,-14.6026617190908,-14.5428783246117,3.33538322525859,-11.2520577113147,-45.4234649042774,-2.2448761522984,49.0342453072094,-4.04003356178914,-24.3534007321117,9.98702379108374
3.59679736341946,-14.524308364469,-14.5201361522507,3.30214186168615,-11.295030721926,-45.0780107263092,-2.21671721777885,48.6098369359679,-3.95995485961875,-24.2853619560685,10.1048059497256
3.55666675212082,-14.445478391607,-14.4987674420627,3.26987842413672,-11.3307270668463,-44.7424821733022,-2.19135661564839,48.192344814294,-3.88747657417977,-24.2194334723758,10.233394494886
3.51625596150208,-14.3664683305433,-14.4788246534933,3.23863242952862,-11.3592765738716,-44.4173160490186,-2.16892947028058,47.7825256319517,-3.822113315944,-24.1561777493308,10.3725372578686
3.47468251954389,-14.2875624128904,-14.4603508244926,3.20844469727484,-11.3808392340094,-44.1028344058344,-2.1495431243379,47.3810215324923,-3.76333791515742,-24.0960894400251,10.5219426279003
3.43123528476514,-14.2090300139958,-14.4433796336266,3.17935751641682,-11.3956026315483,-43.7992482697355,-2.13327391647889,46.9883597342697,-3.71059114977543,-24.0396015190105,10.6812852496163
3.38536696456253,-14.1311233126692,-14.4279355336829,3.15141470039793,-11.4037793584741,-43.5066624699196,-2.12016462953824,46.604953141535,-3.66329169349556,-23.9870927858451,10.8502116403683
3.33668201053732,-14.0540752062655,-14.4140339447279,3.12466150390074,-11.405604442378,-43.2250814407314,-2.11022265641189,46.2311020177021,-3.62084598789995,-23.9388964119249,11.0283455003224
3.28492176589056,-13.9780975104723,-14.4016814923419,3.09914438097711,-11.4013328042767,-42.954415871908,-2.10341891118616,45.8669967869661,-3.58265775700903,-23.8953092135452,11.2152925170638
3.22994838343114,-13.9033794646745,-14.3908762781038,3.07491057147467,-11.3912367480321,-42.6944900896364,-2.09968748664571,45.5127220108773,-3.54813691797916,-23.856601316327,11.4106445084264
3.17172868287052,-13.8300865563062,-14.3816081737729,3.05200751119053,-11.3756034706928,-42.4450500537259,-2.09892603238114,45.1682615563824,-3.51670769259255,-23.8230258551114,11.6139828001379
3.110318800646,-13.7583596721485,-14.3738591356197,3.03048206936024,-11.3547325770271,-42.2057718561419,-2.10099680821176,44.8335049366141,-3.48781578390274,-23.7948283552799,11.8248807901861
3.04585021489984,-13.6883145813044,-14.3676035386328,3.01037962511534,-11.328933581882,-41.9762706049726,-2.10572835813009,44.5082547700418,-3.46093454482643,-23.7722554742442,12.0429056991643
2.97851750263374,-13.62004175259,-14.3628085311421,2.9917430025152,-11.2985233882329,-41.7561095774413,-2.11291774657956,44.1922352704089,-3.43557012662553,-23.7555628255478,12.2676195351765
2.90856800070678,-13.5536065067711,-14.3594344098381,2.97461129145887,-11.2638237360403,-41.5448095259758,-2.12233329652846,43.8851016498204,-3.41126565193817,-23.7450216394937,12.4985793126816
2.83629339087121,-13.4890495001391,-14.3574350148566,2.95901858894841,-11.2251586290201,-41.3418580202254,-2.13371776596338,43.5864502892502,-3.38760450363869,-23.7409240335133,12.7353365707217
2.76202310525427,-13.4263875299581,-14.356758145177,2.94499270190729,-11.1828517631601,-41.1467187032784,-2.14679189797317,43.2958295026721,-3.36421284890694,-23.7435866872769,12.9774362546253
2.68611934739435,-13.3656146448978,-14.3573459954994,2.93255385913531,-11.1372239975447,-40.9588403333633,-2.16125828157299,43.0127506915989,-3.34076152058794,-23.7533527482354,13.2244150645697
2.60897344112529,-13.3067035360923,-14.3591356160572,2.92171348531897,-11.0885909187831,-40.7776654763063,-2.17680546530605,42.7366996571061,-3.31696735494682,-23.7705918266322,13.4757994305762
2.53100315243802,-13.2496071783531,-14.362059395778,2.91247309297028,-11.037260552976,-40.6026387123035,-2.19311227088358,42.4671478117662,-3.2925940443681,-23.7956979652752,13.7311033323742
2.45265057618662,-13.1942606868154,-14.3660455670129,2.90482334759933,-10.9835312763592,-40.4332142256204,-2.20985225752158,42.2035630230287,-3.2674525189138,-23.8290854857147,13.989826223834
2.37438013956515,-13.1405833513589,-14.3710187282028,2.89874335664127,-10.9276899713664,-40.2688626589,-2.22669828861168,41.9454198296974,-3.24140083501385,-23.8711826324612,14.251451332256
2.296676248558,-13.088480808486,-14.3769003812709,2.89420022345698,-10.870010470527,-40.1090771344699,-2.2433271514068,41.692208805428,-3.21434353044729,-23.922422986355,14.5154445873641
2.22004009502033,-13.0378473073987,-14.3836094841457,2.8911488952444,-10.8107523257963,-39.9533783713739,-2.25942417898783,41.4434448919601,-3.18623040291132,-23.9832347129032,14.7812544081035
2.14498515648617,-12.9885680241039,-14.3910630247665,2.88953232032599,-10.7501599343083,-39.8013188557864,-2.27468782362343,41.198674580959,-3.1570546808643,-24.0540278408689,15.0483125453073
2.0720309676152,-12.9405213755205,-14.3991766290007,2.88928191768104,-10.6884620420884,-39.6524860512908,-2.28883413165224,40.957481877916,-3.12685057442115,-24.1351799020495,15.3160361424631
2.00169483449023,-12.8935812857177,-14.4078652187451,2.89031834951887,-10.625871634497,-39.5065046624687,-2.30160106926355,40.7194930282027,-3.09569021645578,-24.2270203766764,15.5838311312367
1.93448131638646,-12.8476193590043,-14.4170437368598,2.89255257569054,-10.5625862063128,-39.3630379892486,-2.31275264280749,40.4843800216032,-3.06368002725629,-24.3298144651534,15.8510970222392
1.87086952862697,-12.8025069193216,-14.4266279525822,2.89588715790673,-10.4987883862539,-39.2217884301372,-2.3220827459398,40.2518629188964,-3.03095655808927,-24.4437467500356,16.1172330836713
1.81129863116018,-12.7581168814943,-14.4365353556014,2.90021777353682,-10.4346468718057,-39.0824972108367,-2.32941865101083,40.0217110662317,-2.99768188738116,-24.5689053403593,16.3816458204981
1.75615224898286,-12.7143254264444,-14.4466861402636,2.90543489291122,-10.3703176125402,-38.9449434321093,-2.33462404679227,39.7937432842535,-2.96403865687361,-24.7052671176115,16.6437575772937
1.70574298224878,-12.6710134593304,-14.4570042747038,2.91142556891525,-10.3059451660035,-38.8089425465135,-2.33760151299033,39.5678271411803,-2.93022484563211,-24.8526847240479,16.9030159921902
1.66029853083947,-12.6280678374548,-14.467418643598,2.91807528265428,-10.2416641412875,-38.6743443854648,-2.33829431882378,39.3438774408162,-2.89644838851973,-25.0108759349633,17.1589039331935
1.61995117647857,-12.5853823641679,-14.4778642471459,2.92526978541953,-10.177600641621,-38.5410308638099,-2.3366874420133,39.1218540728264,-2.86292175117931,-25.1794160290443,17.4109494658773
1.58473232621678,-12.5428585551431,-14.4882834318713,2.9328968770503,-10.1138736175388,-38.408913487851,-2.33280772648925,38.9017593774118,-2.82985657357326,-25.3577337143339,17.658735351611
1.55457345018365,-12.5004061930579,-14.4986271204199,2.94084806504747,-10.0505960452831,-38.2779307843715,-2.32672312891513,38.6836351657894,-2.79745848942646,-25.545111077045,17.9019075682104
1.5293140469859,-12.4579436954198,-14.5088559979229,2.9490200568614,-9.98787585072332,-38.1480457531542,-2.31854104021707,38.4675595121533,-2.76592222240278,-25.7406878888416,18.1401823791617
1.50871634457339,-12.4153983279564,-14.5189416021466,2.95731604772712,-9.92581650753365,-38.0192434259161,-2.30840570329395,38.2536433975261,-2.73542705372225,-25.9434704387751,18.3733515479967
1.49248547782514,-12.3727063017644,-14.5288672549679,2.96564677584704,-9.86451724996368,-37.8915285944333,-2.29649477847804,38.0420272497632,-2.70613275105302,-26.1523448708656,18.6012853953494
1.48029308768669,-12.329812794645,-14.538628766594,2.97393132445731,-9.80407285576341,-37.7649237532597,-2.28301513386533,37.8328773955049,-2.67817604527691,-26.3660948339752,18.8239335196883
1.47180182588128,-12.286671934498,-14.5482348449779,2.9820976577598,-9.74457297503385,-37.6394672882689,-2.2681979613402,37.6263824242753,-2.65166773958575,-26.583423094309,19.0413231356752
