Finger Velocity,Scap_X,Scap_Y,Scap_Z,Shoulder horiz abd-adduction,Shoulder flexion-extension,Shoulder internal-external rotation,elbow flexion-extension,forearm pronation-supination,wrist flexion-extension,wrist radial-ulnar deviation
0.589242810918783,-12.4494846039186,-21.1684276542652,2.97307218733666,0.196647468177889,-52.3575890734148,2.67288123341307,60.3047339218881,-29.1069100040724,-20.1488427901272,3.25291341354931
0.656127640353127,-12.4327782966262,-21.1451085380473,3.00515179461285,0.123785698107821,-52.2924040004384,2.54903407618671,60.3544895699788,-28.9751491373569,-20.0622305542671,2.85255733741951
0.782379789493724,-12.413208247733,-21.1215926010125,3.03794293012648,0.0512440701642189,-52.2154346205367,2.41921143942384,60.4063753191355,-28.8370412394993,-19.9696245852105,2.42994634893004
0.962769005323289,-12.3905124432827,-21.0978904709279,3.07119627505088,-0.020366679477109,-52.1257318808794,2.28369784113028,60.4594998529147,-28.6933222814476,-19.8717441305252,1.98748502357333
1.18883082537408,-12.3644307229473,-21.0739805589351,3.10462928248856,-0.0903935293710922,-52.0224137742538,2.14283629053034,60.5128530420551,-28.5448097222135,-19.7693665035546,1.52788717400969
1.45335668128077,-12.3347079942714,-21.0498069938221,3.13792571750644,-0.158143071674503,-51.9046813783689,1.99702997058777,60.5653146000929,-28.3923882870506,-19.6632919060008,1.05412171850752
1.75099528768514,-12.3010974588133,-21.0252785124244,3.17073593276572,-0.222884406556261,-51.7718335761741,1.84674312383592,60.6156650001362,-28.2369939283252,-19.5543075265417,0.56935149899629
2.0776782661852,-12.2633637584935,-21.0002683933181,3.2026780211215,-0.28385318212222,-51.6232800302241,1.69250092757297,60.6625983953889,-28.0795964224708,-19.4431532632428,0.0768674582499073
2.43004829134813,-12.2212859523695,-20.9746154968113,3.23333995797845,-0.340256870627122,-51.458552015737,1.53488820272879,60.7047372176787,-27.9211811334881,-19.330491319138,-0.419979205082838
2.80508912043625,-12.1746602396357,-20.9481264499366,3.2622828115361,-0.391281292780026,-51.277310762251,1.3745468805779,60.7406480652638,-27.7627305313468,-19.2168816300981,-0.917844254208522
3.199915506095,-12.123302354151,-20.9205789892267,3.28904506223749,-0.436098314982545,-51.079353014073,1.21217223802861,60.768858438098,-27.6052060886217,-19.1027646348529,-1.41345449628859
3.61166350015847,-12.0670495689665,-20.8917264439816,3.31314803403411,-0.473874564222992,-50.8646135940378,1.04850799118922,60.7878738419962,-27.44953118453,-18.9884523463781,-1.90366650135188
4.03744072717696,-12.0057622649485,-20.861303306451,3.33410239871965,-0.503780949412368,-50.6331648384676,0.884340395670859,60.7961947685471,-27.2965756140149,-18.8741280996711,-2.38551811017754
4.47431257036803,-11.9393250340611,-20.8290317932522,3.35141567183261,-0.525002758916625,-50.3852128568817,0.72049153191808,60.7923330689542,-27.1471422266162,-18.7598547881683,-2.85627132691307
4.91931021943377,-11.8676473040635,-20.7946292571811,3.36460057748105,-0.53675011955768,-50.1210906542952,0.557811954048726,60.7748272788045,-27.0019561136907,-18.6455908883087,-3.31344567511977
5.36945216415106,-11.7906634868311,-20.7578162639349,3.37318412202063,-0.538268635444255,-49.8412482378673,0.397172858832813,60.7422565164119,-26.8616566440429,-18.5312131283056,-3.75484159717917
5.82177383969358,-11.7083326669285,-20.7183251079124,3.37671718270624,-0.528850056241741,-49.5462399157853,0.23945789938205,60.6932526670044,-26.7267925401215,-18.4165443150767,-4.17855396840801
6.27336187815456,-11.6206378599226,-20.6759085093601,3.37478438601005,-0.507842841312261,-49.2367090857549,0.0855547370936505,60.6265106730226,-26.5978201005344,-18.301384622256,-4.58297624190305
6.72139042699264,-11.527584880949,-20.630348215473,3.36701402105412,-0.474662482667509,-48.9133709013858,-0.0636535968955263,60.5407968676461,-26.4751046036421,-18.1855445523379,-4.96679610585817
7.16315760061693,-11.4292008734003,-20.5814632222458,3.35308770840172,-0.428801424315295,-48.5769932925217,-0.207297470944433,60.4349554009791,-26.3589248530364,-18.0688777700107,-5.32898380399075
7.59612052117788,-11.325532554911,-20.5291173408759,3.33274952711558,-0.36983837361333,-48.2283768944697,-0.344529499042053,60.3079129019696,-26.2494807283174,-17.9513120330364,-5.66877442760618
8.01792768034917,-11.216644241666,-20.4732258499816,3.30581429818777,-0.297446755423194,-47.8683345053152,-0.474533420257578,60.1586815847059,-26.14690347576,-17.8328765502495,-5.985645518903
8.42644757180626,-11.1026157111704,-20.4137610008291,3.27217473371483,-0.211402027670072,-47.4976707340917,-0.596532986938132,59.9863610439212,-26.0512683274499,-17.71372431547,-6.27929123697458
8.81979273563901,-10.9835399583504,-20.3507561755574,3.23180718936878,-0.111587565707688,-47.1171625199415,-0.70980086006793,59.790138995683,-25.9626089016986,-17.5941482858699,-6.54959418128898
9.19633853832999,-10.8595208917722,-20.2843085362851,3.18477580137088,0.00200116566194224,-46.7275411894499,-0.813667529875028,59.5692912110303,-25.8809327336278,-17.4745906264517,-6.79659580982958
9.55473619409575,-10.7306710073951,-20.2145800445774,3.13123484527497,0.129254400284796,-46.3294766747953,-0.907530291856214,59.3231808690673,-25.8062372221195,-17.3556445742006,-7.02046627384463
9.89391971907186,-10.5971090675492,-20.1417967761652,3.07142921723619,0.26994801551,-45.9235644417088,-0.990862305812362,59.0512575293795,-25.7385252628768,-17.2380487709458,-7.22147442776238
10.213106699378,-10.4589578032643,-20.0662465065449,3.00569300203771,0.423745769918095,-45.510315577839,-1.06322173557067,58.75305589805,-25.6778198711918,-17.1226741849336,-7.3999587485742
10.5117929454878,-10.3163416490042,-19.9882745999913,2.93444614966696,0.590203907452003,-45.0901503723432,-1.12426090396208,58.428194538313,-25.6241771777335,-17.0105040201588,-7.55629988523792
10.7897412947085,-10.1693845110165,-19.9082782962676,2.85818933052083,0.768778139387064,-44.6633955789617,-1.1737353125474,58.0763746527086,-25.5776972889801,-16.9026073269071,-7.69089552305819
11.0469650056965,-10.018207565592,-19.826699553017,2.77749707776789,0.958832954361003,-44.2302854021124,-1.21151228812955,57.6973790353705,-25.5385326196104,-16.8001073530042,-7.80413817916834
11.2837063574698,-9.86292708386942,-19.7440166637304,2.69300935449998,1.15965314671095,-43.7909660858835,-1.23757894260947,57.291071260614,-25.5068934143982,-16.7041459495628,-7.89639645769333
11.5004112132793,-9.70365228680268,-19.6607349259939,2.6054217055794,1.37045739235563,-43.3455038279405,-1.25204907701669,56.8573951389283,-25.4830502808513,-16.6158455295741,-7.96800019943556
11.6977004296422,-9.54048324683426,-19.5773766761157,2.51547417513194,1.59041363310703,-42.8938955933745,-1.25516862994401,56.3963744359184,-25.4673336549366,-16.5362701822675,-8.01922984821921
11.8763390758012,-9.37350886933089,-19.4944710298088,2.4239391959652,1.81865594933097,-42.436082276137,-1.24731926755114,55.908112816008,-25.4601302215885,-16.4663875891435,-8.05031019934572
12.0372044728192,-9.20280500406126,-19.4125436732916,2.3316086876826,2.05430250999515,-41.9719635568943,-1.22901973599664,55.3927939431847,-25.4618764072645,-16.40703336522,-8.06140848976774
12.1812540601716,-9.02843275296294,-19.3321070344063,2.23928063289358,2.29647409948995,-41.5014137473139,-1.20092464905694,54.8506816483318,-25.4730491540268,-16.3588793446363,-8.05263656088845
12.3094940493293,-8.8504370542987,-19.2536511276882,2.14774543263468,2.54431264570526,-41.0242979034617,-1.16382046841716,54.2821200594429,-25.494154275057,-16.322407134575,-8.02405661255435
12.4229497299101,-8.66884563320166,-19.1776353122008,2.057772368543,2.79699912486164,-40.540487538346,-1.11861854865059,53.6875335894952,-25.5257127771144,-16.2978879796636,-7.97568990327982
12.5226381595937,-8.48366841031105,-19.1044811350831,1.97009651168689,3.05377020329554,-40.0498753550902,-1.06634524622905,53.0674266878675,-25.5682456093671,-16.2853696267007,-7.90752765841478
12.609543802908,-8.29489744998237,-19.0345663703854,1.88540640777944,3.31393299813121,-39.5523885382825,-1.00812921213464,52.4223832826069,-25.6222573554983,-16.2846704947707,-7.81954343229713
12.6845974981631,-8.10250750798303,-18.968220311623,1.80433283583329,3.57687739650303,-39.0480002634173,-0.945186090122473,51.7530658656525,-25.688219425911,-16.295381095802,-7.71170622087467
12.7486589405032,-7.90645720996265,-18.9057203385903,1.72743889016729,3.84208546472902,-38.5367392023655,-0.878800923928717,51.0602141916136,-25.7665533286796,-16.3168723640274,-7.58399371144492
12.8025026874721,-7.70669086156279,-18.8472897492082,1.65521158229327,4.10913760300871,-38.0186969118175,-0.810308633993621,50.344643565034,-25.8576146007686,-16.3483103598272,-7.43640515674539
12.8468075361412,-7.50314086352181,-18.7930968201616,1.58805510394123,4.37771525249254,-37.4940330882102,-0.741072957768713,49.6072426792659,-25.9616779650986,-16.3886767041298,-7.26897345212185
12.8821489998538,-7.29573068342048,-18.7432550337478,1.52628583782144,4.64760012725834,-36.9629787529574,-0.672464265250167,48.8489709464648,-26.0789242444532,-16.4367940384146,-7.08177607487169
12.9089945362209,-7.08437831920624,-18.6978243836019,1.47012915134899,4.9186701075036,-36.4258374941009,-0.605836674477976,48.070855231463,-26.2094295092407,-16.4913557468596,-6.87494462684935
12.9277011494941,-6.86900017507965,-18.6568136505259,1.41971796227002,5.1908920792642,-35.8829849365119,-0.542504905489967,47.273985882216,-26.3531568632861,-16.5509590893332,-6.64867282048689
12.9385150077991,-6.64951525530218,-18.6201835220795,1.3750930242871,5.464312132912,-35.334866645567,-0.483721322976838,46.4595119432588,-26.5099511825139,-16.6141407714545,-6.40322286962588
12.9415727718369,-6.42584956701833,-18.5878504150771,1.33620484584312,5.73904363276017,-34.781994690346,-0.43065362581834,45.6286354483046,-26.6795370160331,-16.6794138402923,-6.13893038082319
12.9369044152995,-6.19794061301961,-18.5596908482918,1.30291712748979,6.0152537388521,-34.2249431018674,-0.384363649092237,44.7826047136813,-26.8615197349923,-16.745304682622,-5.85620796869772
12.9244374144364,-5.96574185273275,-18.535546204467,1.27501158343893,6.29314899682243,-33.6643424608078,-0.345787752603272,43.9227065971948,-27.0553898716667,-16.8103888705271,-5.5555479124903
12.9040022801059,-5.72922701425288,-18.5152277173774,1.25219400010534,6.57296061276638,-33.1008738406588,-0.315719273031097,43.0502577479358,-27.2605304377789,-16.8733246720931,-5.23752420132909
12.8753394862618,-5.48839414828753,-18.4985215219661,1.23410137715534,6.85492999817698,-32.5352623186916,-0.294793505100662,42.1665949464504,-27.476226859885,-16.9328831915543,-4.90279427079033
12.8381079027921,-5.24326932287637,-18.485193614946,1.2203099929826,7.1392951063573,-31.9682702474013,-0.283475647232308,41.2730647120363,-27.7016790317416,-16.9879742818029,-4.55210062250715
12.7918948603442,-4.99390986515302,-18.4749945918571,1.21034423403907,7.42627799189997,-31.4006904507722,-0.282052100476182,40.3710124256085,-27.9360148681124,-17.0376675791555,-4.18627236239991
12.7362279571945,-4.74040706508224,-18.4676640552054,1.20368602368084,7.71607392100178,-30.8333394729539,-0.290625445849257,39.4617712752686,-28.1783046626803,-17.0812082378295,-3.80622652534148
12.6705886649312,-4.48288826796659,-18.4629346239587,1.19978468113064,8.00884225656479,-30.2670509671475,-0.3091133410289,38.5466513711643,-28.4275755170742,-17.1180271457733,-3.41296891615659
12.5944277064562,-4.22151829834714,-18.4605355103843,1.19806703676293,8.30469924770233,-29.7026692776122,-0.337251470708867,37.6269293920601,-28.6828251263577,-17.1477455737759,-3.00759410563513
12.5071820755389,-3.95650017781371,-18.4601956585521,1.1979476277981,8.60371277100674,-29.1410432430748,-0.374600558453257,36.7038391167376,-28.9430342790039,-17.1701743964983,-2.59128416236742
12.4082934527657,-3.68807512291034,-18.4616464565977,1.19883879926188,8.9058989981509,-28.5830202350755,-0.420557308216853,35.7785631603283,-29.2071775524934,-17.1853082462187,-2.1653056731229
12.2972276597037,-3.416521835236,-18.4646240449242,1.20016053850397,9.21122089731267,-28.029440435094,-0.474368999048652,34.8522261826566,-29.4742318524531,-17.1933151641804,-1.73100462612952
12.1734946921619,-3.1421551206765,-18.4688712505734,1.20134987627005,9.51958841327889,-27.4811313437372,-0.535151315558633,33.9258897674053,-29.7431826390815,-17.1945224502034,-1.28979881453063
12.0366687935183,-2.86532389453374,-18.4741391875808,1.20186969233546,9.83086011477737,-26.9389025010741,-0.601908869712773,33.0005490925388,-30.0130278863788,-17.1893994730164,-0.843167551038875
11.8864079765853,-2.58640864173303,-18.4801885735711,1.20121677196272,10.1448460515774,-26.4035403826671,-0.673557768140757,32.0771314292705,-30.2827800046214,-17.1785382028424,-0.392638654604248
11.7224723809141,-2.30581840728425,-18.4867908205857,1.19892897704497,10.4613115344474,-25.8758034280655,-0.748949512952603,31.1564964231259,-30.5514661088164,-17.1626321872842,0.0602271356531742
11.5447408624948,-2.0239873957266,-18.493728959582,1.19459142620099,10.7799815444901,-25.356417162467,-0.826895497254836,30.2394380294042,-30.8181271262949,-17.142454645218,0.513853959474701
11.3532252526099,-1.74137126279988,-18.5007984525443,1.18784161800317,11.1005454952787,-24.8460693878549,-0.906191368442993,29.3266879016301,-31.0818163017048,-17.1188363133774,0.966670295693162
11.1480817883302,-1.4584431879049,-18.5078079359511,1.17837347273606,11.4226621050538,-24.3454054442174,-0.985640578747316,28.4189199732145,-31.3415976800178,-17.0926436362573,1.41712938441023
10.9296193035508,-1.17568981920116,-18.5145799268321,1.16594030253561,11.7459641787479,-23.8550235707231,-1.06407651551915,27.5167559354728,-31.5965451342871,-17.0647578400512,1.86372983948556
10.6983038706091,-0.893607181622986,-18.5209515081087,1.1503567433662,12.0700631453972,-23.3754704273327,-1.14038269388927,26.6207712999425,-31.845742461578,-17.036055379095,2.3050356908064
10.4547596922634,-0.612696630518853,-18.5267749924516,1.13149969526372,12.3945532435532,-22.9072368675598,-1.21351059600543,25.7315017365033,-32.0882850011904,-17.0073901772569,2.73969517240804
10.1997661563172,-0.333460920914308,-18.5319185437514,1.10930832204438,12.7190152956073,-22.4507540841424,-1.28249485479397,24.849449398037,-32.3232831331024,-16.9795779930769,3.16645768763823
9.93425107530315,-0.0564004469254825,-18.5362667151511,1.08378316136824,13.0430200608596,-22.0063902813181,-1.34646560869917,23.9750889751185,-32.5498678902956,-16.9533831230661,3.58418851573023
9.65928023713232,0.21799030960482,-18.5397208466597,1.05498439393148,13.3661312033125,-21.5744480543742,-1.40465799353302,23.1088732674215,-32.7671987707432,-16.9295075454195,3.99188096277179
9.37604348629655,0.489226095779922,-18.5421992571379,1.02302931893173,13.6879079481975,-21.1551626690342,-1.45641887624156,22.2512381069936,-32.9744736735774,-16.9085825115243,4.38866579301879
9.08583763701802,0.756833956135752,-18.5436371660032,0.988089082224196,14.0079075263951,-20.7487014225272,-1.50121105806299,21.4026065165166,-33.1709407206553,-16.8911625108842,4.77381788965975
8.79004658877476,1.02035605172444,-18.5439862884936,0.950384703050753,14.3256875164698,-20.3551642345254,-1.53861526993394,20.5633920288578,-33.3559115698428,-16.8777214578457,5.14676017527603
8.49011907109515,1.27935224234685,-18.5432140635119,0.910182444185466,14.6408081921158,-19.9745855650956,-1.56833034513131,19.7340011313673,-33.5287756907404,-16.868650879838,5.50706487161683
8.18754448966352,1.53340245779541,-18.5413024943106,0.867788568787459,14.9528349728422,-19.6069376966006,-1.59017198237797,18.9148348314833,-33.6890149679797,-16.8642598386429,5.85445220821878
7.88382738176576,1.78210889235982,-18.5382466086051,0.823543526536612,15.2613410616132,-19.2521353552686,-1.60407051089094,18.1062893725676,-33.8362179292607,-16.8647762944271,6.18878670896397
7.58046101877353,2.02509805680964,-18.5340525731961,0.777815614457697,15.565910336752,-18.9100415919965,-1.61006804238474,17.3087561610903,-33.9700928676041,-16.8703496218427,6.51007119366532
7.27890071991181,2.26202271386118,-18.5287355241534,0.730994167105718,15.8661405465978,-18.5804747936007,-1.60831534790704,16.5226209945485,-34.0904791370037,-16.8810539933476,6.81843862852353
6.98053746803143,2.49256371067521,-18.5223171935013,0.68348234830556,16.1616468329788,-18.2632166554667,-1.59906873356253,15.7482626989584,-34.1973559403042,-16.8968923382283,7.11414195336116
6.6866724467581,2.71643171016936,-18.5148234267586,0.635689642054888,16.4520655818544,-17.9580209136192,-1.58268711361629,14.9860512942161,-34.2908479887576,-16.9178005588408,7.397542010317
6.39849314980632,2.93336881481284,-18.5062816943809,0.588024169974504,16.7370585653552,-17.6646226067884,-1.55962939619736,14.2363458082987,-34.3712274884679,-16.9436516573718,7.66909369580468
6.11705174545959,3.14315007159323,-18.4967187055741,0.54088499096497,17.016317299957,-17.3827476149679,-1.53045220758993,13.4994918611687,-34.4389120010198,-16.9742594353523,7.92933045724849
5.8432464068568,3.34558484228348,-18.486158234718,0.494654560384541,17.2895675047616,-17.1121222002332,-1.49580788683777,12.7758191376624,-34.494457842796,-17.0093814969586,8.1788472710193
5.57780633257004,3.540518016752,-18.474619266665,0.44969153940509,17.5565735071831,-16.8524822611197,-1.4564425860108,12.0656388645692,-34.5385488408758,-17.048721398002,8.41828227787693
5.32128116922036,3.72783103871822,-18.4621145553139,0.406324151464525,17.8171424145986,-16.6035820080502,-1.41319421960397,11.3692414004299,-34.5719804589198,-17.091929895742,8.64829731141045
5.07403549358098,3.90744270466344,-18.4486496698801,0.364844282695922,18.0711278518847,-16.3652017780938,-1.36698992874333,10.6868940400844,-34.595639540977,-17.138605346605,8.86955761642242
4.83624890127106,4.0793096896078,-18.4342225776642,0.325502514492511,18.3184330579017,-16.1371547341184,-1.31884267303024,10.018839132946,-34.6104801810644,-17.1882933730634,9.08271110510098
4.6079220725541,4.24342674968261,-18.4188237849969,0.288504254410121,18.5590131395552,-15.9192922333433,-1.26984654581102,9.36529261430996,-34.6174964850493,-17.2404859893222,9.28836754399692
4.38888894128591,4.39982655177681,-18.40243703334,0.254007093598361,18.7928762982876,-15.7115076973589,-1.22117043431914,8.72644304899664,-34.6176932138663,-17.2946204419183,9.48707812141023
4.17883479117032,4.54857908558443,-18.3850405271412,0.222119466907455,19.0200838684206,-15.5137388647588,-1.17404971120944,8.10245128161523,-34.612055455556,-17.35007808153,9.67931591800236
3.97731976812582,4.68979062334412,-18.3666086530752,0.192900632418432,19.2407490398339,-15.3259683580121,-1.12977573565182,7.49345077425779,-34.6015185580689,-17.4061836326363,9.86545787741717
3.78380696425535,4.82360220695393,-18.3471141341557,0.16636192861233,19.45503418073,-15.1482225505502,-1.08968304724164,6.89954868897663,-34.5869395682462,-17.4622052706738,10.0457689314129
3.59769393920711,4.95018765948744,-18.3265305446754,0.142469216081774,19.6631467298786,-14.9805687791904,-1.05513424596249,6.32082773958696,-34.569071371864,-17.5173559509415,10.2203889673398
3.41834633807892,5.0697511361781,-18.3048350930368,0.121146370108273,19.8653336899144,-14.8231110078259,-1.02750265928768,5.75734879751006,-34.548540623723,-17.570796442519,10.3893233213939
3.24513217013359,5.18252424635462,-18.282011561801,0.102279661924559,20.061874821049,-14.6759841043492,-1.00815299855426,5.20915419229463,-34.5258304020934,-17.621640481997,10.5524374202372
3.0774553406543,5.28876279097096,-18.2580532814964,0.0857228495403478,20.2530747032228,-14.5393469364576,-0.998420304123579,4.67627160187379,-34.5012683192684,-17.6689623727392,10.7094560718292
2.91478717020122,5.38874316984647,-18.2329660098501,0.071302791305585,20.4392538981679,-14.4133745184164,-0.99958757936274,4.15871838417842,-34.4750205727133,-17.7118072312957,10.8599677362189
