Finger Velocity,Scap_X,Scap_Y,Scap_Z,Shoulder horiz abd-adduction,Shoulder flexion-extension,Shoulder internal-external rotation,elbow flexion-extension,forearm pronation-supination,wrist flexion-extension,wrist radial-ulnar deviation
0.372056351264575,-11.9360823219915,-25.3163849578909,5.10324999548674,-9.81547523102286,-45.0561485829416,-8.88845698482974,53.8894839279966,-22.5169841831181,-45.3914933661955,28.5171145497229
0.436980580287108,-11.9068817369443,-25.3144558055026,5.11568415359435,-9.93706664956314,-44.9956550711153,-9.03960446610708,53.9633386058792,-22.4193560977615,-45.1834049935845,28.1107763455653
0.512471252879812,-11.876525322645,-25.3130745503351,5.12774418066408,-10.0592536995937,-44.9321911856386,-9.19155941740579,54.0456592589273,-22.323778272788,-44.9687443312172,27.6833470451141
0.597886379684822,-11.8450803944181,-25.3122489845559,5.13927907222245,-10.1811148914557,-44.8654226048787,-9.34322424719052,54.1360619972893,-22.230987636138,-44.7492325999489,27.2368228082999
0.69265877763889,-11.8126120774662,-25.3119687525499,5.15013386624525,-10.3017165699317,-44.7949524730968,-9.49344542619543,54.2339921243204,-22.1416801552343,-44.5266899645468,26.7734588965224
0.79629092154966,-11.7791817002185,-25.3122035751671,5.16015109403138,-10.4201268204326,-44.7203207272509,-9.64101899620824,54.3387206572822,-22.0564986231421,-44.3029932334533,26.2957355187447
0.908336450057645,-11.7448454280166,-25.3129017602993,5.16917240068562,-10.5354296595213,-44.6410046448342,-9.78469696400508,54.4493435836194,-21.9760211514085,-44.0800289330456,25.8063169635993
1.02838267041554,-11.7096531758871,-25.3139890635855,5.17704032098308,-10.6467392312547,-44.556420670676,-9.92319473153905,54.5647839870362,-21.9007506443204,-43.8596431231881,25.3080048454894
1.15603789348691,-11.6736478255057,-25.3153679525096,5.18360018391366,-10.7532137013801,-44.4659275743188,-10.0551996894213,54.6837971252408,-21.8311055418691,-43.6435895897855,24.8036865884556
1.29092352279198,-11.6368647564315,-25.3169173118752,5.18870210915612,-10.8540685208108,-44.368830982412,-10.1793810721541,54.8049784791798,-21.7674121203129,-43.4334782596941,24.2962805508541
1.43266970969009,-11.5993316849264,-25.3184926136465,5.1922030533676,-10.9485887226621,-44.2643893157789,-10.2944011429298,54.9267747234738,-21.7098986230559,-43.2307258160289,23.7886794351164
1.58091327451006,-11.5610687855262,-25.3199265626671,5.19396886399979,-11.0361399254395,-44.1518211362669,-10.398927742017,55.0474974952682,-21.6586914606945,-43.0365105262363,23.2836937963987
1.7352967758678,-11.5220890523188,-25.3210302220532,5.19387630151388,-11.1161777381327,-44.0303138766967,-10.4916481907111,55.1653397712798,-21.6138136740725,-42.8517332166195,22.7839975328025
1.89546784655531,-11.4823988406515,-25.3215946170703,5.19181499440818,-11.188255298713,-43.8990338913196,-10.5712844867343,55.2783946055416,-21.5751858032216,-42.6769861363415,22.2920771975562
2.06107813670091,-11.4419985183558,-25.3213928132884,5.18768929339403,-11.2520287225508,-43.7571377246541,-10.6366096548072,55.384675934491,-21.5426292466944,-42.5125311648912,21.8101868262023
2.23178140329091,-11.4008831509696,-25.3201824626693,5.18141999086696,-11.3072602877848,-43.6037844533754,-10.6864650316411,55.4821411210929,-21.515872126244,-42.3582884443829,21.3403097344564
2.40723046442911,-11.3590431486549,-25.3177088078695,5.17294586960146,-11.3538192379075,-43.4381489114537,-10.7197781753314,55.5687148847389,-21.4945575912644,-42.2138360717314,20.8841284354915
2.5870729023751,-11.3164648121662,-25.3137081283704,5.16222504043111,-11.3916801370139,-43.2594355671576,-10.7355810037627,55.6423142468973,-21.4782544090823,-42.0784209796571,20.4430034729307
2.7709455536374,-11.2731307291982,-25.3079116011666,5.14923602373532,-11.4209187708328,-43.0668927854677,-10.7330276949638,55.7008741108212,-21.466469592932,-41.9509806062684,20.0179615947918
2.95846796576997,-11.2290199894059,-25.3000495338372,5.13397852698327,-11.4417056475069,-42.8598271830502,-10.7114118352156,55.7423730840639,-21.4586627205339,-41.8301744598972,19.6096933345927
3.1492351248522,-11.1841082053944,-25.2898559102236,5.11647387393082,-11.4542972167293,-42.637617765338,-10.6701822863524,55.7648591440539,-21.4542614980921,-41.7144242761753,19.2185597416213
3.34280985927041,-11.1383673463841,-25.2770731714397,5.09676505156691,-11.4590249952319,-42.3997295235989,-10.6089572632639,55.766474740856,-21.4526780375246,-41.6019611416038,18.8446077086096
3.53871539855275,-11.0917654087813,-25.2614571407063,5.07491635660091,-11.4562828608815,-42.145726160039,-10.5275361601251,55.7454809296635,-21.4533252488435,-41.4908777015471,18.4875930588792
3.73642860587642,-11.0442659616618,-25.2427819906599,5.05101264021799,-11.4465128534967,-41.8752816003779,-10.4259087297625,55.7002801300809,-21.4556327096826,-41.3791833870231,18.1470102768923
3.93537440669769,-10.9958276147538,-25.2208451448358,5.02515816407573,-11.4301898904322,-41.588189950955,-10.3042612946779,55.6294371215101,-21.459061360975,-41.2648605287272,17.8221275386604
4.13492190356228,-10.9464034625493,-25.1954719987651,4.99747508982577,-11.4078058604375,-41.2843735690258,-10.1629797422143,55.5316979065523,-21.4631163937997,-41.1459193170303,17.5120255717542
4.33438260109842,-10.895940561221,-25.1665203400201,4.9681016292993,-11.3798535951693,-40.9638889460324,-10.0026491266314,55.4060061090177,-21.4673577422638,-41.0204498064528,17.2156388660882
4.53301107054936,-10.844379494785,-25.1338843422583,4.93718988572785,-11.3468112333051,-40.6269301550594,-9.82404977019648,55.2515166183287,-21.4714076846977,-40.8866695108411,16.9317978505731
4.73000826697322,-10.7916540825102,-25.0974980085721,4.90490342135041,-11.309127488542,-40.2738296819208,-9.62814982879568,55.0676062437134,-21.4749551813537,-40.7429655393683,16.6592708163623
4.92452758258453,-10.7376912707213,-25.0573379462501,4.871414595749,-11.2672083104446,-39.9050565384354,-9.41609436670364,54.8538811961616,-21.4777567409749,-40.5879306235477,16.3968045646781
5.11568358509303,-10.6824112404603,-25.0134253685365,4.83690173306573,-11.2214053864028,-39.5212116398582,-9.18919106823812,54.6101812721225,-21.4796338059403,-40.4203927174676,16.1431629418192
5.30256325830885,-10.6257277507306,-24.9658272378482,4.80154619399145,-11.1720068742104,-39.1230205105289,-8.94889279882198,54.336580669681,-21.4804668609315,-40.2394380763343,15.8971625645077
5.48423944066491,-10.5675487268413,-24.9146564877559,4.76552944684601,-11.119230678312,-38.711323459366,-8.69677731138702,54.0333854244881,-21.4801866815218,-40.0444278354802,15.6577051300402
5.65978605118303,-10.5077770940236,-24.8600712868148,4.72903024592267,-11.0632204893027,-38.2870634391922,-8.43452447014165,53.7011275072746,-21.4787633278195,-39.8350081620435,15.4238057657071
5.82829460576153,-10.4463118466177,-24.8022733350807,4.69222202960316,-11.0040446983358,-37.8512718716413,-8.1638914266142,53.3405556755171,-21.4761936399683,-39.6111140846268,15.1946169297292
5.98889146200617,-10.3830493324846,-24.7415052126077,4.65527064363572,-10.941698181283,-37.405052782828,-7.88668623263385,52.9526232176808,-21.4724880928402,-39.3729671594982,14.9694474572257
6.14075518942098,-10.3178847222539,-24.6780468266481,4.6183324777141,-10.8761068287829,-36.9495656529652,-7.60474041727487,52.5384727686388,-21.4676579034737,-39.1210672165473,14.747776461281
6.28313344390018,-10.2507136253962,-24.6122110285401,4.58155307869611,-10.807134583393,-36.4860074326608,-7.31988109387111,52.099418408309,-21.4617032518591,-38.8561785430121,14.529261952296
6.41535873070683,-10.1814338109333,-24.5443384909929,4.54506627384912,-10.7345926387615,-36.0155942145517,-7.03390319646387,51.6369252820182,-21.4546033804752,-38.57931101171,14.3137442273982
6.53686246764327,-10.109946989433,-24.47479195206,4.50899380480166,-10.6582503656355,-35.5395430649122,-6.74854246645627,51.152587003299,-21.4463091943077,-38.2916968343627,14.1012442927355
6.64718680882107,-10.0361606132218,-24.4039499452858,4.47344544049181,-10.5778474663221,-35.0590545106072,-6.46544981530582,50.6481011238369,-21.4367388054589,-37.9947637738502,13.8919577768864
6.74599375808879,-9.95998965164279,-24.3322001477942,4.43851950875389,-10.4931068311514,-34.5752961401153,-6.18616767410176,50.1252429876386,-21.4257762682696,-37.6901057270451,13.6862449288239
6.83307118841978,-9.8813582969297,-24.2599324894092,4.40430376369704,-10.4037475772276,-34.0893877162319,-5.9121089006062,49.585838329904,-21.4132735456772,-37.3794515759678,13.4846173494328
6.90833548784821,-9.80020155481913,-24.1875321746136,4.37087649066456,-10.3094977836608,-33.6023881205566,-5.64453874494427,49.0317350336842,-21.3990555486719,-37.0646331194305,13.2877220883182
6.97183067198589,-9.71646667380012,-24.1153727735044,4.33830774266158,-10.2101064901212,-33.1152843664888,-5.38456027881692,48.4647745151507,-21.3829279077078,-36.7475527685927,13.0963236656915
7.0237239353167,-9.63011436807654,-24.0438095376263,4.30666060216942,-10.1053545915295,-32.6289828362994,-5.13310357825346,47.8867632665632,-21.3646869722713,-36.430151550114,12.9112844802513
7.06429775511172,-9.54111979124672,-23.9731730933021,4.2759923701507,-9.99506433750379,-32.1443028217822,-4.89091882744472,47.2994451390333,-21.3441313974852,-36.114377843625,12.7335439715042
7.09393880862762,-9.449473220443,-23.903763660518,4.24635559879623,-9.87910722761698,-31.6619723762049,-4.65857339118006,46.7044749872412,-21.321074574894,-35.8021572043826,12.5640968431801
7.11312411065068,-9.35518041490525,-23.8358459391681,4.21779890519778,-9.75741017896704,-31.1826264179264,-4.43645279306873,46.10339431639,-21.2953571106156,-35.4953635861204,12.403970633888
7.12240491743403,-9.25826261840049,-23.769644794124,4.19036752894443,-9.62995992664786,-30.7068069662609,-4.22476543966233,45.497609559749,-21.2668585548548,-35.1957922762052,12.2542029443211
7.12238906632841,-9.1587561804623,-23.7053418538837,4.16410362563332,-9.49680569555516,-30.2349653412017,-4.02355084700758,44.8883735688049,-21.235507641378,-34.9051348784142,12.1158186914616
7.11372251862365,-9.05671177757205,-23.643073114187,4.13904631651704,-9.35806024928964,-29.7674661200464,-3.83269105436735,44.276770817804,-21.2012903974118,-34.6249567145881,11.9898078417045
7.09707093666522,-8.95219322459683,-23.5829276097774,4.11523153768553,-9.21389947568131,-29.3045926124469,-3.65192484792851,43.6637067147056,-21.1642556254225,-34.3566770407392,11.8771041479358
7.07310214621265,-8.84527588071346,-23.5249471867914,4.09269174704322,-9.06456070613942,-28.8465535898986,-3.48086436423225,43.0499012783121,-21.1245174305224,-34.1015524591019,11.778565450757
7.04247030418533,-8.73604467160894,-23.4691273760532,4.07145555194438,-8.91033998491066,-28.3934909907071,-3.31901359949279,42.4358872958464,-21.0822546610003,-33.8606638426692,11.6949560853684
7.0058025065664,-8.6245917684676,-23.4154193334495,4.05154731476359,-8.75158850285453,-27.9454883234895,-3.16578831900836,41.8220129274852,-21.0377073300492,-33.6349069825803,11.6269318664125
6.96368843194754,-8.51101398238102,-23.363732777919,4.03298678084093,-8.58870839007402,-27.5025795125247,-3.02053684205826,41.2084485844511,-20.9911702762675,-33.4249870416499,11.5750280167259
6.91667342891627,-8.39540994958742,-23.3139398230485,4.01578875810902,-8.42214802746587,-27.0647579603001,-2.88256117213355,40.5951977807217,-20.9429844813499,-33.2314167640552,11.539650275859
6.86525523157118,-8.27787719731321,-23.2658795685992,3.99996286451912,-8.25239699638231,-26.6319856367108,-2.75113794981858,39.9821115464309,-20.8935265804563,-33.0545182603086,11.521069284866
6.8098842430162,-8.15850918989216,-23.2193632964549,3.9855133490028,-8.07998074657771,-26.2042020329371,-2.6255387252558,39.3689058951169,-20.8431971638525,-32.8944280703136,11.5194182138446
6.75096708111958,-8.03739245824997,-23.1741801027407,3.97243898180101,-7.90545503200197,-25.7813328377,-2.50504907612067,38.7551817617427,-20.7924084763377,-32.7511051217206,11.5346934947893
6.68887285466494,-7.9146039126289,-23.1301027939373,3.96073299834051,-7.72940014432614,-25.3632982048559,-2.38898613147449,38.1404467789507,-20.7415720838103,-32.624341155767,11.5667584503913
6.62394145056392,-7.79020843066026,-23.086893878403,3.95038306795184,-7.55241496446565,-24.950020486459,-2.27671409965539,37.5241382364755,-20.6910870112677,-32.5137731833876,11.615349562506
6.55649297986019,-7.66425680296844,-23.0443114944678,3.9413712474863,-7.37511085048123,-24.5414313066297,-2.16765744163401,36.9056465693404,-20.6413287790555,-32.4188975438384,11.6800850882486
6.48683746250129,-7.53678410723873,-23.0021151313067,3.93367387350928,-7.19810538390871,-24.1374778510516,-2.06131138498428,36.2843387395261,-20.5926396839023,-32.3390851511509,11.7604756970579
6.41528383294384,-7.40780856865679,-22.9600710179666,3.92726134710507,-7.02201600391532,-23.7381282491673,-1.9572495415704,35.6595809109246,-20.5453205954169,-32.2735975279463,11.8559367695196
6.34214741925612,-7.27733094950596,-22.9179570766842,3.92209777222102,-6.84745356689759,-23.3433759378953,-1.85512847477672,35.0307598688013,-20.4996244735676,-32.2216032518732,11.9658019781266
6.26775518090102,-7.14533449402656,-22.8755673558539,3.91814042007768,-6.6750158744095,-22.9532429222575,-1.75468915905425,34.397302701839,-20.4557517571872,-32.1821944918804,12.0893377732041
6.19244817416167,-7.01178543760522,-22.832715874168,3.91533900667634,-6.50528121283668,-22.5677818883745,-1.65575538597417,33.7586943420979,-20.4138477160402,-32.1544033935006,12.2257584276936
6.11658093575373,-6.87663407297386,-22.7892398220614,3.91363478755383,-6.33880194664834,-22.1870771693888,-1.55822929516774,33.1144926383085,-20.374001786498,-32.1372181651413,12.374241339358
6.04051771939233,-6.73981634981413,-22.7450020828203,3.91295949415836,-6.17609820839943,-21.8112446049316,-1.46208433717253,32.4643407156623,-20.3362488223046,-32.1295987870696,12.5339423234994
5.96462577085834,-6.60125596585442,-22.6998930554705,3.91323415891138,-6.0176517367248,-21.4404303640935,-1.36735609299382,31.8079764504008,-20.3005720991309,-32.130492289092,12.7040106369919
5.88926606787525,-6.46086688605066,-22.6538317836137,3.91436789886523,-5.86389992940462,-21.0748088209121,-1.27413146637336,31.1452389622952,-20.2669078292089,-32.1388475294392,12.8836034609468
5.81478216516831,-6.31855620408102,-22.6067664152848,3.91625674786044,-5.71523019985976,-20.7145795847233,-1.18253682102547,30.4760721039851,-20.2351508784516,-32.1536293829728,13.0718995540089
5.7414879560748,-6.17422724187391,-22.5586740356645,3.91878264170587,-5.57197474699766,-20.3599638002776,-1.09272565713682,29.8005250026636,-20.2051613352209,-32.17383223025,13.2681117849196
5.66965527487431,-6.02778277152348,-22.5095599260149,3.92181266881128,-5.4344058654484,-20.0111998455403,-1.0048664132779,29.1187497845048,-20.1767715593651,-32.1984926285031,13.4714982630053
5.59950230613814,-5.87912823963893,-22.459456309083,3.92519869934867,-5.30273193433102,-19.6685385649229,-0.919130943062723,28.4309966813944,-20.1497933459376,-32.2267010319056,13.6813718067875
5.53118373095911,-5.72817487523169,-22.4084206449429,3.92877749779989,-5.17709422700985,-19.3322381777157,-0.835684148973492,27.737606778496,-20.1240248708915,-32.2576124131444,13.8971075282707
5.46478342364485,-5.57484256822068,-22.3565335439462,3.93237140439494,-5.05756467844395,-19.0025589955776,-0.754675159603623,27.0390027082763,-20.0992571403956,-32.2904556348727,14.1181483705567
5.40031032331338,-5.4190624180116,-22.3038963667584,3.93578964144996,-4.94414472697004,-18.6797580735449,-0.676230320253577,26.3356776337741,-20.0752797306444,-32.3245414367281,14.3440085161913
5.33769785858283,-5.26077887172801,-22.250628585181,3.9388302665505,-4.83676531536709,-18.3640839099531,-0.600448145935779,25.6281828944813,-20.0518856706219,-32.3592689351129,14.5742746675214
5.2768070237376,-5.09995139820364,-22.1968649801712,3.94128276162056,-4.73528809981574,-18.0557713016716,-0.527396273013728,24.917114714457,-20.0288753804307,-32.3941305668503,14.808605272498
5.21743291999324,-4.93655567237986,-22.1427527545507,3.94293121703181,-4.63950788345828,-17.7550364494338,-0.457110344849138,24.2031003939497,-20.0060596315928,-32.4287154354032,15.0467278226627
5.1593143154631,-4.77058427031982,-22.0884486378476,3.94355804173797,-4.54915626683848,-17.4620723923341,-0.389594676248513,23.4867844203562,-19.9832615439947,-32.4627110347714,15.2884343839333
5.10214556843295,-4.60204689514348,-22.0341160592896,3.94294810251072,-4.46390648782943,-17.1770448328702,-0.324824459105099,22.7688149386317,-19.9603176786294,-32.4959033309397,15.5335755377359
5.04559011951556,-4.43097016943336,-21.9799224601314,3.94089316842749,-4.38337940460335,-16.9000883988643,-0.262749198205095,22.0498310128489,-19.9370783282084,-32.5281751804041,15.7820529158127
4.98929469829073,-4.25739704201841,-21.9260368060781,3.93719651428068,-4.30715055522554,-16.6313033796179,-0.203297007684465,21.3304510881481,-19.9134071483418,-32.5595030669751,16.0338105126187
4.93290340785611,-4.08138586753073,-21.8726273450859,3.93167752334144,-4.23475820740406,-16.3707529702985,-0.14637936499813,20.6112630254622,-19.8891803044475,-32.5899521398007,16.2888249563304
4.87607093599221,-3.90300922505346,-21.8198596386763,3.92417612918522,-4.16571229218015,-16.1184610573753,-0.0918959183153754,19.892816030565,-19.8642853262177,-32.6196695334083,16.5470949137659
4.81847427771018,-3.72235254607345,-21.7678948790237,3.91455694717097,-4.09950409519379,-15.8744105758381,-0.0397389745669164,19.1756147356507,-19.8386198586677,-32.6488759511697,16.8086297993238
4.75982252108691,-3.53951262088135,-21.7168884895765,3.90271296317026,-4.03561655880686,-15.6385424659363,0.0102026508350285,18.4601156199027,-19.8120904807773,-32.6778555094822,17.0734379572452
4.69986442685928,-3.35459604685597,-21.6669889932988,3.88856866383241,-3.97353502918144,-15.410755256212,0.0580406779389964,17.7467258820274,-19.7846117390939,-32.7069438811796,17.3415144960854
4.63839370508453,-3.16771767329025,-21.6183371208751,3.87208250708319,-3.91275826452689,-15.1909053035767,0.103885486918293,17.0358048079184,-19.7561055203655,-32.73651485057,17.6128289844856
4.57525204601326,-2.97899908751314,-21.5710651229358,3.85324864701446,-3.85280950232506,-14.9788077298261,0.147845432608217,16.3276676102378,-19.726500860818,-32.7669654992867,17.8873132743397
4.51033008828838,-2.78856717740264,-21.5252962457978,3.8320978476092,-3.79324736271768,-14.7742381027761,0.190027364691778,15.6225916482304,-19.6957342524829,-32.7987003680782,18.1648497945833
4.44356660094935,-2.59655279664367,-21.4811443291676,3.80869754545545,-3.73367634262562,-14.5769349125399,0.23053826414621,14.9208248596382,-19.6637504578012,-32.8321150607634,18.4452607390559
4.37494621523417,-2.40308955173898,-21.4387134871409,3.78315105107406,-3.67375663334149,-14.386602884199,0.269487802585404,14.2225961509512,-19.6305037903896,-32.8675798507598,18.7282986341254
4.30449606921549,-2.20831272381751,-21.3980978414752,3.75559590961754,-3.61321297869442,-14.2029171448731,0.306991542167493,13.5281274016098,-19.5959597707784,-32.9054239075805,19.0136387981518
4.23228172609503,-2.01235833265023,-21.3593812889272,3.72620147264117,-3.55184228795073,-14.0255282264701,0.343174427757253,12.8376466493779,-19.5600970228031,-32.9459207771151,19.3008741841763
4.15840269987882,-1.81536234412451,-21.3226373010442,3.69516576209657,-3.48951973171922,-13.8540678399284,0.378174182424229,12.1514019463136,-19.5229092377523,-32.9892757181354,19.5895130221777
4.08298787519686,-1.61746001694402,-21.2879287711344,3.66271173461198,-3.42620308065657,-13.6881553106991,0.412144200865133,11.4696753156214,-19.4844069993092,-33.0356154099835,19.878979544291
4.00619104657229,-1.41878538218581,-21.255307934211,3.62908307756867,-3.36193509350003,-13.5274045248519,0.445255537646753,10.7927962044272,-19.4446192303119,-33.0849804041459,20.1686178929695
