Finger Velocity,Scap_X,Scap_Y,Scap_Z,Shoulder horiz abd-adduction,Shoulder flexion-extension,Shoulder internal-external rotation,elbow flexion-extension,forearm pronation-supination,wrist flexion-extension,wrist radial-ulnar deviation
0.363613702434736,-11.1624153647662,-16.8966944558891,3.13843142471093,-6.59047577916312,-57.7210740467798,-3.57267251760705,60.7127304574257,-30.2224276241127,-19.8321259159131,2.16669216684709
0.478194119179257,-11.1177354527524,-16.8942051844131,3.16468702810206,-6.76298414514055,-57.7039085830417,-3.78636712140406,60.8450283540039,-30.1401678837893,-19.5059289363305,1.72751757583904
0.607297881220106,-11.0714976465688,-16.8911974392453,3.190008006283,-6.93978752951952,-57.6790280159567,-4.00752362410725,60.9846061276766,-30.0511230046205,-19.1613791996396,1.26289115180914
0.749391977083969,-11.0239402834457,-16.8874715816117,3.21406038966136,-7.11943440431701,-57.6454153609189,-4.23444592496844,61.129935446974,-29.9555067687119,-18.8015252282016,0.776247093572393
0.903377683671793,-10.9753016713952,-16.8828143395363,3.23651889627595,-7.30039690858055,-57.602044366921,-4.46528934342309,61.279266542386,-29.8536004264053,-18.4297376869931,0.271431576340256
1.06829665921437,-10.9258132456348,-16.8770019202739,3.25707135922707,-7.48109464973133,-57.5478929958752,-4.698082974687,61.4306461824364,-29.7457478743603,-18.049631257546,-0.247374838491672
1.2432087970299,-10.8756927501337,-16.8698034928963,3.2754225033476,-7.65991982066814,-57.4819575067111,-4.93075475315884,61.5819405585578,-29.632349539553,-17.6649774133053,-0.775745508675073
1.42714118529031,-10.8251376683769,-16.8609849653251,3.29129702851458,-7.83526316549452,-57.4032668285832,-5.1611589129544,61.7308626501294,-29.5138551471178,-17.2796116073227,-1.30910353211163
1.61906939249528,-10.7743191234366,-16.8503129620985,3.30444201790008,-8.00554034996265,-57.310896882177,-5.38710551058122,61.8750034918263,-29.3907556087058,-16.8973387325209,-1.84282147432612
1.81791492950462,-10.7233764535026,-16.8375588995115,3.31462873753231,-8.16921831049886,-57.2039844861757,-5.60639162725806,62.011866632947,-29.2635743112715,-16.5218408424752,-2.37232118622268
2.0225515421134,-10.6724126468763,-16.8225030546769,3.32165392442121,-8.32484116197602,-57.0817404723521,-5.81683379887599,62.1389049679478,-29.1328581060123,-16.1565910211102,-2.89316990033438
2.23181665651482,-10.6214907916468,-16.8049385333253,3.32534067480301,-8.47105523619536,-56.9434616361974,-6.01630114028288,62.2535590332191,-28.9991682918473,-15.8047769551559,-3.40116901658774
2.44452592764806,-10.5706316608667,-16.7846750560369,3.32553904514116,-8.60663279872954,-56.788541176982,-6.20274854913431,62.3532958097732,-28.8630718612545,-15.4692372001246,-3.89243242403208
2.65948960307087,-10.5198125150206,-16.7615425012928,3.32212647146611,-8.73049395747107,-56.6164773315911,-6.37424930511719,62.4356470460865,-28.7251332359166,-15.1524123727145,-4.363451823086
2.87552979047234,-10.4689671612822,-16.7353941619136,3.315008101762,-8.84172624823261,-56.4268799740839,-6.52902633500027,62.4982461206084,-28.585906674734,-14.8563126080117,-4.81114726140038
3.09149791208549,-10.4179872651491,-16.7061096845338,3.30411712283943,-8.93960137933338,-56.2194750292234,-6.66548140159949,62.5388625005031,-28.4459294952781,-14.5825016641197,-5.2329019086476
3.30629173888777,-10.3667248660909,-16.6735976671959,3.28941514661864,-9.02358864752278,-55.9941066260888,-6.78222149714455,62.5554329225242,-28.3057162133732,-14.3320971269968,-5.6265809011296
3.51887146738863,-10.3149960059656,-16.6377978887068,3.27089269985687,-9.09336459956367,-55.7507369925253,-6.87808177301548,62.5460885232718,-28.1657536703816,-14.1057853453952,-5.99053482878193
3.72827435520619,-10.2625853380107,-16.5986831389496,3.24856983639583,-9.14881860055233,-55.4894441587612,-6.95214441066225,62.5091772786665,-28.0264971824178,-13.9038490642023,-6.3235890773748
3.93362748083548,-10.2092515466403,-16.5562606166272,3.22249686413119,-9.1900540761614,-55.2104175963083,-7.00375292907765,62.443281272863,-27.8883677145277,-13.7262052520297,-6.62502074966939
4.13415824480628,-10.1547333770151,-16.5105728623654,3.19275515264808,-9.21738531693299,-54.9139519664551,-7.03252153290177,62.3472284962021,-27.751750060062,-13.5724503509284,-6.89452524652856
4.32920228770242,-10.0987560523714,-16.4616981995319,3.15945796282363,-9.23132986262431,-54.6004391946437,-7.03833923269679,62.2200990576146,-27.6169919910953,-13.4419101199314,-7.13217477918589
4.51820856748426,-10.0410378491523,-16.4097506600734,3.12275121649713,-9.23259661693457,-54.2703591257295,-7.02136861326148,62.0612258782124,-27.4844043379707,-13.3336913941315,-7.33837111121433
4.70074141536187,-9.98129660463796,-16.354879377619,3.08281410340917,-9.22206997233237,-53.9242690489531,-6.98203928200599,61.8701901026527,-27.3542619509202,-13.2467334130391,-7.51379471261183
4.87647947639104,-9.91925594609239,-16.2972674370229,3.03985940682744,-9.20079034580987,-53.5627924042076,-6.92103618807452,61.6468116174368,-27.226805486866,-13.1798568375946,-7.65935228186863
5.04521153745106,-9.85465105164188,-16.2371301804064,2.99413342160902,-9.16993163145162,-53.1866069869508,-6.83928315084161,61.3911351943998,-27.10224394582,-13.1318091031672,-7.77612430116728
5.20682934980991,-9.78723378004461,-16.1747129845647,2.94591534010174,-9.13077615573798,-52.7964329575519,-6.7379220613416,61.1034128792474,-26.9807578599495,-13.1013052668784,-7.86531398637218
5.36131766350062,-9.71677703908054,-16.1102885412891,2.8955159923289,-9.08468777237561,-52.393020937066,-6.61828831774377,60.7840833192957,-26.8625030259521,-13.0870639320302,-7.92819872123662
5.50874180240939,-9.64307830009855,-16.0441536877709,2.84327584836782,-9.03308375922776,-51.9771404421441,-6.48188313201818,60.4337487738219,-26.7476146743704,-13.0878381224435,-7.96608485329601
5.64923321724419,-9.56596220767794,-15.9766258462226,2.78956222479426,-8.97740618840804,-51.5495688824678,-6.33034341017928,60.0531505759265,-26.636211985989,-13.1024411255856,-7.98026658383037
5.78297355219965,-9.48528227501644,-15.9080391396666,2.73476568408068,-8.91909343704913,-51.1110813174786,-6.16540997037723,59.6431438167098,-26.5284028877869,-13.1297673689938,-7.97198958347745
5.91017784314149,-9.40092169352775,-15.8387402559629,2.67929567208643,-8.85955249120047,-50.6624411448318,-5.98889492092493,59.2046720015109,-26.4242890786554,-13.1688084184841,-7.94241986788533
6.0310775232431,-9.31279331679782,-15.7690841353911,2.62357549566225,-8.80013266488704,-50.2043918687605,-5.80264906390042,58.7387423852622,-26.323971239475,-13.2186642487126,-7.89261834608228
6.14590393950846,-9.22083890435664,-15.6994295577812,2.56803678941513,-8.74210130434786,-49.7376500706839,-5.6085302017138,58.2464026309817,-26.2275543704737,-13.2785500343144,-7.82352131058392
6.25487307527091,-9.12502773058034,-15.6301347032834,2.51311364982894,-8.68662197009523,-49.2628996759666,-5.40837318653006,57.7287193536085,-26.1351531728887,-13.347798791536,-7.73592699210989
6.35817212671474,-9.02535467962218,-15.5615527581414,2.45923662289365,-8.63473548884231,-48.7807875795503,-5.20396245803303,57.1867590146772,-26.0468973545279,-13.4258602240903,-7.63048816611679
6.45594849600203,-8.92183795981492,-15.4940276353399,2.40682671952289,-8.58734415070084,-48.2919206602082,-4.99700767084584,56.6215715292064,-25.9629366949139,-13.5122961082471,-7.50771067249596
6.54830164348885,-8.81451658108418,-15.4278898806698,2.35628960703047,-8.54519920460017,-47.7968641791929,-4.78912283852786,56.034176842301,-25.8834456633523,-13.6067725505221,-7.36795758527524
6.63527809398558,-8.70344774560515,-15.3634528372811,2.30801009351962,-8.50889168875656,-47.2961415225799,-4.58180923962115,55.4255546313644,-25.8086273476047,-13.7090495078509,-7.21145863854343
6.71686972705913,-8.58870430273063,-15.3010091444744,2.26234699340132,-8.47884653432477,-46.7902352062931,-4.37644216025817,54.7966371881145,-25.7387164223036,-13.8189680558973,-7.03832438073299
6.79301531072511,-8.47037241121024,-15.240827646506,2.21962844074678,-8.45531980519238,-46.2795890226188,-4.17426139680961,54.1483054341917,-25.673980869461,-13.9364359724665,-6.84856440603301
6.86360507365722,-8.34854953330225,-15.1831507821405,2.18014770291917,-8.43839888528206,-45.7646111762317,-3.97636531673505,53.4813879333369,-25.6147221717089,-14.061412235827,-6.64210891474037
6.92848796437628,-8.22334285739058,-15.1281925145563,2.14415953780616,-8.42800539388301,-45.2456782434079,-3.78370818179172,52.796662690232,-25.5612737439208,-14.1938910299689,-6.41883279089196
6.9874811257161,-8.09486821160817,-15.0761368437858,2.11187713186683,-8.42390059609666,-44.7231397893827,-3.5971003786953,52.0948614723368,-25.5139974490884,-14.3338858293312,-6.17858135331074
7.04038102517761,-7.96324949558021,-15.0271369206543,2.08346965232323,-8.42569307492142,-44.1973234885605,-3.41721117691321,51.3766763497692,-25.4732781460556,-14.4814141220046,-5.92119692717284
7.08697562928821,-7.82861862402395,-14.9813147548328,2.05906044550311,-8.43284843914248,-43.6685406013333,-3.24457363616872,50.6427681096896,-25.4395163232649,-14.6364833110475,-5.64654539086982
7.12705699241533,-7.69111594422594,-14.9387614852661,2.03872591453535,-8.44470085457009,-43.1370916623246,-3.07959130915569,49.8937761602363,-25.4131189721907,-14.7990782688598,-5.35454188388388
7.16043364476203,-7.5508910576338,-14.8995381634145,2.02249511131523,-8.46046620210646,-42.6032722265056,-2.9225464152332,49.1303294971654,-25.3944889425106,-14.9691508725655,-5.04517493231876
7.1869422058975,-7.40810394473522,-14.8636769891698,2.01035007585337,-8.47925667650713,-42.067378507121,-2.7736091839317,48.3530582707558,-25.3840130985971,-15.1466116302842,-4.7185283622479
7.20645771367112,-7.26292626583514,-14.831182933615,2.00222694669228,-8.50009663550968,-41.5297127300147,-2.6328480758914,47.5626054674199,-25.3820496614989,-15.3313232866632,-4.37480050381354
7.2189022381326,-7.11554269257963,-14.8020356798853,1.99801784813644,-8.52193948867395,-40.9905880265563,-2.50024058935102,46.7596382139997,-25.3889151660393,-15.5230961455078,-4.01432031279925
7.22425144099822,-6.96615211861869,-14.7761918130717,1.99757353775228,-8.54368538749579,-40.4503326915613,-2.37568436607991,45.9448582260218,-25.4048714839185,-15.7216847998578,-3.63756014049399
7.22253883892319,-6.81496860243792,-14.7535871921544,2.00070677744347,-8.56419945603433,-39.9092936432689,-2.25900833263412,45.1190109558891,-25.4301133604349,-15.9267860004554,-3.24514497107273
7.21385762992868,-6.66222190902773,-14.7341394394077,2.00719637692824,-8.58233029161622,-39.3678389425165,-2.14998365132588,44.2828930521621,-25.4647568886035,-16.138037480198,-2.83785802573079
7.19836004416725,-6.50815753746988,-14.7177504833791,2.01679184756442,-8.59692846457491,-38.8263592617484,-2.04833429825673,43.4373578137119,-25.5088293085462,-16.3550176353808,-2.41664271249711
7.17625428075549,-6.35303614693911,-14.7043090908481,2.02921859203973,-8.60686474632889,-38.2852682420279,-1.95374711735445,42.5833184094565,-25.5622604833238,-16.5772460037911,-1.9826009882742
7.14779918988639,-6.19713232247775,-14.69369332391,2.04418353846502,-8.61104779491269,-37.7450017321551,-1.86588121362789,41.7217487319632,-25.6248763714494,-16.8041844581475,-1.53698829811438
7.11329695201897,-6.04073265308354,-14.6857728633417,2.06138110799053,-8.60844103389242,-37.2060159577065,-1.78437655374788,40.8536818553829,-25.6963947878494,-17.0352389739076,-1.08120535433818
7.07308409142628,-5.88413312730613,-14.6804111502973,2.08049938821427,-8.59807848161763,-36.6687847098108,-1.7088616492422,39.9802061677249,-25.7764237102333,-17.2697617948942,-0.616787088222241
7.02752123699977,-5.72763588451101,-14.6774673151915,2.1012263732576,-8.5790793198127,-36.1337956716972,-1.63896021160497,39.1024593389641,-25.8644623406368,-17.5070538639274,-0.145389128650234
6.97698210556302,-5.57154539255002,-14.6767978830488,2.12325612385117,-8.55066102139608,-35.601546020433,-1.57429668719242,38.2216203662178,-25.9599050711741,-17.7463675040002,0.331227856051836
6.9218422281355,-5.41616415501925,-14.6782582643216,2.14629469378467,-8.51215087695934,-35.0725374572263,-1.51450060058576,37.3389000018456,-26.0620484296949,-17.9869094659377,0.811215640532714
6.86246796349487,-5.26178808214134,-14.6817040550353,2.17006566266951,-8.46299576840342,-34.5472708339219,-1.45920965968738,36.45552991719,-26.1701009953362,-18.2278445307134,1.29265743324194
6.79920634218112,-5.10870168346576,-14.6869921779014,2.19431511423399,-8.40277004670042,-34.0262405550836,-1.40807160800931,35.5727509831028,-26.2831961748875,-18.4682998331763,1.77358802066951
6.73237625483114,-4.95717325316325,-14.6939818965366,2.21881591040446,-8.33118138741735,-33.5099289429586,-1.36074485213421,34.6918010581969,-26.4004076173693,-18.7073699752277,2.25201465303998
6.66226144004762,-4.80745021973774,-14.7025357292066,2.24337113601651,-8.24807452377606,-32.9988007545282,-1.31689794443571,33.8139026657921,-26.520766918596,-18.9441228821362,2.72593821868379
6.58910563965385,-4.6597548247161,-14.7125202786533,2.26781662358714,-8.15343279020306,-32.4932980330564,-1.27620805898113,32.9402509109698,-26.6432831383618,-19.1776062919254,3.19337425669675
6.5131101764544,-4.51428028129124,-14.7238069836744,2.29202250587724,-8.04737744904141,-31.9938354592519,-1.23835865742718,32.0720019453024,-26.766963532122,-19.4068547786836,3.65237340501733
6.4344340773872,-4.37118754446534,-14.7362727894657,2.31589378019016,-7.93016481919193,-31.5007963399129,-1.20303659742786,31.2102622373399,-26.8908347966917,-19.6308972721227,4.10104095540417
6.35319672135546,-4.23060279992956,-14.7498007290104,2.33936990003145,-7.80218127394846,-31.0145293374337,-1.16992898357509,30.3560788578846,-27.0139640557173,-19.8487651036059,4.53755526702996
6.26948284577073,-4.0926157514186,-14.7642804066336,2.36242343823845,-7.66393622000604,-30.535346005718,-1.13872009351254,29.5104309417503,-27.1354787804927,-20.0595006457834,4.96018486345048
6.18334960918792,-3.95727875687256,-14.77960837605,2.38505789295442,-7.5160532067185,-30.0635191615136,-1.10908872252899,28.6742224419862,-27.2545848691846,-20.2621666001301,5.36730409867878
6.09483528907261,-3.82460683304099,-14.7956884083122,2.40730473302142,-7.35925934271459,-29.5992820892109,-1.08070627380214,27.8482762481007,-27.3705821935032,-20.455855925298,5.75740732647265
6.0039691017816,-3.69457851692507,-14.8124316498253,2.42921979928416,-7.194373215345,-29.1428285527629,-1.05323587852468,27.0333296949225,-27.4828770520417,-20.6397023115696,6.12912154397138
5.91078157188246,-3.56713754217893,-14.829756675998,2.45087919068749,-7.02229152003544,-28.6943135681012,-1.02633276452769,26.2300314428794,-27.5909911268763,-20.8128910270524,6.48121750793401
5.81531485271586,-3.44219526115146,-14.8475894504637,2.47237476961578,-6.84397461951372,-28.2538548701848,-0.999646007146413,25.438939668166,-27.6945667146557,-20.9746699048375,6.81261933769441
5.71763240944996,-3.3196337203859,-14.865863202024,2.4938094221157,-6.66043127380821,-27.8215349894453,-0.972821695432276,24.6605214685993,-27.7933681879338,-21.1243601934458,7.12241262312051
5.61782751710113,-3.19930928065848,-14.8845182311589,2.51529220748838,-6.47270280832036,-27.3974038345311,-0.945507441129645,23.8951533695809,-27.8872798225517,-21.261366949588,7.40985105708705
5.51603009455693,-3.08105666299493,-14.9035016547712,2.53693352879697,-6.28184700864855,-26.9814816671108,-0.917358063562549,23.1431228023369,-27.9763002831218,-21.3851886344914,7.67436162187425
5.4124114859193,-2.96469329894175,-14.9227670919201,2.55884045051557,-6.08892203877762,-26.5737623554435,-0.888042210647513,22.4046304225361,-28.0605341783182,-21.4954255967414,7.91554837430509
5.30718690656352,-2.8500238644274,-14.942274286407,2.58111228067054,-5.89497067463241,-26.1742168057734,-0.857249623522889,21.67979314292,-28.1401811801886,-21.591787166923,8.13319487909487
5.20061538754717,-2.73684487952749,-14.9619886571692,2.60383652141129,-5.70100513487197,-25.7827964870402,-0.82469871641144,20.9686477697046,-28.215523253677,-21.6740971316359,8.32726532571295
5.09299717342278,-2.62494926086713,-14.9818807669112,2.62708527432048,-5.5079927808645,-25.3994369772386,-0.790144127093254,20.2711551573536,-28.2869105682001,-21.7422974063132,8.49790433812494
4.98466865088022,-2.51413072065814,-15.0019257030361,2.65091216681223,-5.31684294922985,-25.0240614652847,-0.753383902806056,19.5872048243374,-28.3547466599598,-21.796449807131,8.64543545641095
4.87599500532693,-2.40418791815125,-15.0221023701279,2.67534984551024,-5.12839517039483,-24.6565841412192,-0.714266020706017,18.9166199968993,-28.419473379056,-21.8367359214147,8.77035823327626
4.76736091610498,-2.29492828569272,-15.0423926976545,2.70040806234087,-4.94340900942684,-24.2969134051262,-0.672693989403588,18.2591630651447,-28.481556096199,-21.863455155226,8.87334384814638
4.65915970492809,-2.18617147058019,-15.062780770212,2.7260723606979,-4.76255573472054,-23.9449548290616,-0.628631325320377,17.6145414469425,-28.5414695732926,-21.8770210699666,8.95522910826147
4.55178144204351,-2.0777523521492,-15.0832518916644,2.7523033558503,-4.58641197414783,-23.6006138209963,-0.582104741940908,16.9824138613659,-28.5996848275208,-21.8779561150272,9.0170086917836
4.44560058542619,-1.96952360756961,-15.1037915993871,2.7790365982506,-4.41545546197695,-23.26379796128,-0.533205936716479,16.3623970125216,-28.6566572381591,-21.8668848527039,9.05982549680845
4.34096377397358,-1.86135780770503,-15.1243846502599,2.80618300860876,-4.25006292203767,-22.9344190016477,-0.482091910571387,15.7540726745483,-28.7128160606475,-21.8445257832069,9.08495899290991
4.23817840976895,-1.75314902688169,-15.145014005767,2.8336298745046,-4.09051008120444,-22.6123945292241,-0.428983802510967,15.1569951519876,-28.7685554350893,-21.8116819097976,9.09381152649385
4.13750264112174,-1.64481395093266,-15.1656598488055,2.86124239599514,-3.93697376569796,-22.2976493045677,-0.37416426105815,14.5706990719223,-28.8242269194222,-21.7692302075735,9.08789260254962
4.03913729322826,-1.53629247039963,-15.1862986680733,2.88886576152998,-3.7895359990327,-21.990116286453,-0.317973406259591,13.9947074470241,-28.8801335443547,-21.7181101524353,9.06880124762204
3.94322018622373,-1.42754775311715,-15.2069024456673,2.91632772721613,-3.64818998930929,-21.6897373573779,-0.260803466908695,13.4285399293199,-28.9365253706182,-21.6593114362628,9.03820664665926
3.84982313508972,-1.31856580369804,-15.2274379799043,2.94344166326103,-3.51284785940836,-21.3964637618987,-0.203092211540233,12.8717211513683,-28.9935965192013,-21.5938609592653,8.99782733643088
3.75895175170249,-1.20935453559298,-15.2478663708441,2.97001002050186,-3.38334993366621,-21.1102562663276,-0.145315326277531,12.3237890284025,-29.0514836354074,-21.522809163313,8.94940933060525
3.67054798074577,-1.09994240103935,-15.2681426928339,2.99582815637266,-3.25947535031074,-20.8310850482761,-0.0879779218575435,11.78430287913,-29.1102657351193,-21.447215763116,8.8947036405185
3.58449511644607,-0.99037664141259,-15.2882158757706,3.0206884440713,-3.1409537245311,-20.5589293328499,-0.0316053724438286,11.2528512181594,-29.1699653664988,-21.3681349633967,8.83544372083022
3.50062488551879,-0.880721233175029,-15.3080288114466,3.04438457272015,-3.02747754517135,-20.2937768082711,0.0232662995720066,10.7290590755397,-29.2305510043076,-21.2866003246332,8.77332338835265
3.41872606090011,-0.771054613126306,-15.3275186912006,3.06671593237826,-2.91871494840345,-20.0356228715293,0.0761002735841114,10.2125947010032,-29.2919405794215,-21.2036095361623,8.70997573064039
3.33855400355398,-0.661467272069335,-15.3466175674202,3.08749196873822,-2.81432247596413,-19.7844697684159,0.126368796055917,9.70317550950376,-29.3540060329547,-21.1201094435763,8.6469534531562
