Finger Velocity,Scap_X,Scap_Y,Scap_Z,Shoulder horiz abd-adduction,Shoulder flexion-extension,Shoulder internal-external rotation,elbow flexion-extension,forearm pronation-supination,wrist flexion-extension,wrist radial-ulnar deviation
1.01507583500737,-7.55018407203242,-27.0805204857927,1.24392521711904,-7.98440958809265,-41.1938665979247,1.3703694846009,49.9644820376509,-23.9131554196522,-47.1013693550981,33.95121470662
1.23001683770956,-7.54607740221338,-27.0962751527012,1.27116337967737,-8.0499150496817,-41.1895984885353,1.32760756287131,49.9954929804876,-23.7970424252163,-47.0444413859796,33.9466712049627
1.45793598405711,-7.54189233743298,-27.111913423448,1.30011317073243,-8.12347764383252,-41.1876506299719,1.28353984006758,50.0343261069972,-23.6660997873817,-46.9676869526132,33.9301621010439
1.69744717292225,-7.53770547891159,-27.1273558357153,1.3306231027505,-8.2050379867935,-41.1881090692345,1.23845960622927,50.0814901859872,-23.5200086456983,-46.8692436165974,33.8999320253804
1.94700530285082,-7.53360234591864,-27.142530489787,1.36250736535063,-8.29441241998065,-41.1910089935717,1.19266446919412,50.1374147652748,-23.358573370593,-46.7474654659272,33.8543029344379
2.20491366021636,-7.52967560518886,-27.1573750762904,1.39554847600535,-8.3912892085085,-41.1963286214241,1.14644960760486,50.2024365400045,-23.1817240264618,-46.6009739087466,33.7917140145253
2.46933880545457,-7.52602284290708,-27.1718386990336,1.42950085541744,-8.49522740443192,-41.2039839395186,1.10010155561135,50.2767869023327,-22.9895165126466,-46.4287013526514,33.7107582156688
2.73833031368232,-7.52274390245239,-27.1858834333273,1.46409523994195,-8.60565858551787,-41.2138244458604,1.05389286997722,50.3605810456653,-22.7821304457042,-46.2299254475129,33.6102137536132
3.00984396118378,-7.51993783037476,-27.1994855728056,1.49904381016401,-8.7218916042875,-41.2256300219901,1.00807801428449,50.4538089576152,-22.5598649276709,-46.0042920111248,33.4890691996667
3.28176743781194,-7.5176994922434,-27.2126365326142,1.53404588637257,-8.84312038646986,-41.2391090194782,0.962890755033728,50.5563285790318,-22.3231324160312,-45.751825387993,33.3465411889244
3.55194786687304,-7.51611593966576,-27.2253433904942,1.56879402006643,-8.96843470740319,-41.253897609828,0.918543296863398,50.6678613326301,-22.0724509619892,-45.4729257659741,33.1820842866221
3.81822049940657,-7.51526263147774,-27.2376290555679,1.60298029694847,-9.09683375764323,-41.2695604179051,0.875227287249272,50.7879901383823,-21.8084351153729,-45.1683537934651,32.9953930856473
4.07843798842514,-7.51519963605465,-27.2495320546518,1.63630266085298,-9.22724219442403,-41.2855924395537,0.833116698595706,50.916159940652,-21.5317858112006,-44.8392035986593,32.7863970907961
4.33049967107533,-7.51596796428562,-27.2611059189045,1.66847106922761,-9.35852827355486,-41.3014222331112,0.79237245767228,51.0516806807884,-21.2432795543833,-44.486865950788,32.5552493387723
4.57238030694347,-7.517586197047,-27.2724181456275,1.69921329985045,-9.48952357771793,-41.3164163652148,0.753148553118728,51.1937325643444,-20.9437572018376,-44.1129837973761,32.3023100009787
4.80215774562277,-7.52004757061089,-27.2835487090447,1.7282802463957,-9.6190438105708,-41.329885073572,0.715599226937944,51.3413733997059,-20.6341126053392,-43.7194027428807,32.0281264181429
5.01803902934108,-7.52331766697743,-27.2945881046121,1.75545056592005,-9.74591011211475,-41.3410890776576,0.679886761428061,51.49354773081,-20.3152813326464,-43.3081191754718,31.7334111096743
5.21838447816289,-7.52733282799587,-27.3056349328398,1.78053457021746,-9.86897036143223,-41.3492474263755,0.646189322368937,51.6490974567182,-19.9882296433824,-42.8812286827235,31.4190192733484
5.40172935612699,-7.5319993785081,-27.3167930560328,1.80337728160476,-9.98711995864252,-41.3535462299307,0.614708317799768,51.8067736281194,-19.653943868824,-42.4408771356913,31.0859271499166
5.56680277602157,-7.53719370859759,-27.3281683899345,1.82386060144086,-10.0993216140196,-41.3531480914335,0.585674773683551,51.9652491333394,-19.3134203290177,-41.9892163994873,30.7352124016339
5.71254356715152,-7.54276322998595,-27.3398654186727,1.84190456747854,-10.2046237169552,-41.347202037451,0.559354301486041,52.123132027654,-18.9676559106662,-41.528366087739,30.3680373766249
5.83811290281797,-7.54852818738732,-27.351983543492,1.85746770365587,-10.3021769081642,-41.3348537463209,0.536050328324877,52.2789793111685,-18.6176394231813,-41.0603821599748,29.9856358270827
5.94290356036344,-7.55428427261556,-27.3646133917746,1.87054649155694,-10.3912485322216,-41.3152558858625,0.516105370742442,52.4313110139712,-18.2643438499321,-40.5872325137679,29.5893033350194
6.02654576429983,-7.55980595837716,-27.3778332211609,1.88117401532335,-10.4712347028671,-41.2875783938498,0.499900249998071,52.5786244955162,-17.9087196172837,-40.1107791045502,29.1803913889057
6.08890963974368,-7.56485044221748,-27.3917055531123,1.88941785114603,-10.5416697702988,-41.2510185606862,0.487851259433031,52.7194089020174,-17.5516890104701,-39.6327655923256,28.7603047635476
6.130104376426,-7.56916207181193,-27.4062741610416,1.89537728901823,-10.6022330372702,-41.2048107997539,0.480405393538134,52.8521597459655,-17.19414186291,-39.1548091140393,28.3305015992112
6.15047427003119,-7.5724771125196,-27.4215615213907,1.89917998799203,-10.6527526273685,-41.1482360136086,0.478033829934949,52.9753935733916,-16.8369326254064,-38.6783945551972,27.8924953671569
6.15059186449625,-7.57452871683154,-27.4375668135537,1.90097817573083,-10.6932064623737,-41.0806304816692,0.481223920779302,53.0876626689319,-16.480878880979,-38.2048696877169,27.4478577591751
6.13124846298372,-7.57505196132575,-27.4542645288468,1.90094450786872,-10.7237203560096,-41.0013942060459,0.490470000307802,53.1875697210949,-16.1267613112297,-37.7354397890264,26.9982214593598
6.09344230325614,-7.57378882702937,-27.4716037233667,1.89926770300231,-10.744563281343,-40.9099986551005,0.506263347935041,53.2737823362361,-15.7753250429129,-37.2711608630636,26.5452817521329
6.0383647018238,-7.57049301051432,-27.4895079285112,1.89614806625694,-10.7561399216965,-40.8059938386175,0.529081658478391,53.3450472549616,-15.4272822129677,-36.8129312840989,26.0907959916337
5.96738445730266,-7.56493446327722,-27.5078757183858,1.89179300901296,-10.7589806708249,-40.6890146359057,0.55937836440923,53.4002040932855,-15.0833154965347,-36.3614824283989,25.6365801153723
5.88203076400068,-7.55690356491365,-27.5265819244308,1.88641266460281,-10.7537293054584,-40.5587862825603,0.597572135041157,53.4381984052842,-14.744082258202,-35.9173694411402,25.1845016510222
5.78397481963483,-7.54621484161462,-27.5454794810379,1.88021569019801,-10.7411286099946,-40.4151289073947,0.644036848119261,53.4580938451328,-14.4102189223902,-35.4809635549573,24.7364690267862
5.67501021539954,-7.53271014733203,-27.5644018773317,1.87340533507902,-10.7220042869329,-40.2579610030918,0.699092290757252,53.4590831949416,-14.0823451211019,-35.0524473303462,24.2944173748135
5.55703207388853,-7.51626123314845,-27.5831661761979,1.86617584571066,-10.6972475331491,-40.0873017172177,0.762995800288424,53.4404980216707,-13.7610671699516,-34.6318139494441,23.8602913154337
5.43201475613239,-7.49677164315756,-27.6015765413599,1.85870926760094,-10.6677966947746,-39.9032718669593,0.835935005778715,53.4018167326144,-13.4469804477129,-34.218871392353,23.4360253808583
5.30198780494503,-7.47417789371266,-27.6194281893243,1.85117269127649,-10.6346184278714,-39.7060936101136,0.918021781227472,53.3426708157968,-13.1406703089922,-33.8132520134596,23.0235227960108
5.1690096484389,-7.44844991703653,-27.6365116596817,1.84371597432321,-10.5986887891226,-39.4960887424813,1.00928747114604,53.2628490799555,-12.8427112393861,-33.4144277100452,22.6246333186403
5.03513848708236,-7.41959077814371,-27.6526172789914,1.8364699544274,-10.5609746644019,-39.2736756329387,1.10967939756103,53.1622997473897,-12.5536640611335,-33.0217305325883,22.2411307821992
4.90239977516887,-7.38763570302187,-27.6675396831019,1.82954515208401,-10.5224159168473,-39.0393648474467,1.21905860921103,53.0411302988962,-12.274071109661,-32.6343782486517,21.8746909075126
4.77274983934205,-7.35265048307514,-27.6810822611065,1.82303094875688,-10.4839086026635,-38.7937535482928,1.33719879650082,52.8996050213484,-12.0044494244053,-32.2515040744719,21.5268698731814
4.64803551218058,-7.3147293431587,-27.6930613913349,1.81699521864909,-10.4462895651338,-38.5375187819701,1.46378627438051,52.7381402647593,-11.7452821265772,-31.8721895519955,21.1990840744846
4.52995024270773,-7.27399237592336,-27.7033103550073,1.8114843899062,-10.4103226773693,-38.2714097872594,1.59842092980403,52.5572974755662,-11.4970082839887,-31.4954993818191,20.8925914646874
4.41998798122737,-7.23058265248943,-27.7116828332373,1.80652391180988,-10.3766869627806,-37.9962394662727,1.74061803936783,52.3577741332208,-11.2600116786004,-31.1205169272764,20.6084748605329
4.31939715202966,-7.18466311846647,-27.7180559133791,1.80211910492428,-10.3459667787091,-37.7128751695311,1.8898108861863,52.1403927752328,-11.0346089881492,-30.7463790774686,20.3476275911358
4.229138054695,-7.13641337539129,-27.7223325485207,1.79825636884225,-10.3186442027666,-37.4222289544884,2.04535414256265,51.9060883498725,-10.8210379642442,-30.3723091841405,20.1107418555573
4.14984780974588,-7.08602643231683,-27.7244434289914,1.79490471670189,-10.2950937138168,-37.1252474850632,2.20652803058037,51.6558941833712,-10.6194462308596,-29.9976468623685,19.8983001188478
4.08181718371809,-7.03370549408021,-27.7243482377,1.79201759793829,-10.2755792116032,-36.8229017457522,2.37254331439985,51.3909268867076,-10.4298813337518,-29.6218735788633,19.7105698262076
4.02498305136548,-6.97966083614264,-27.7220362729015,1.78953496273323,-10.2602533713915,-36.5161767465562,2.54254720429376,51.1123705537145,-10.2522826413831,-29.244633156753,19.5476016597422
3.97893882079416,-6.92410680357268,-27.7175264343573,1.78738551608468,-10.2491592823737,-36.2060613932398,2.71563025777753,50.8214606151689,-10.0864756362795,-28.8657465940291,19.4092315004714
3.9429630631978,-6.86725896361596,-27.7108665835207,1.7854891082134,-10.2422342718835,-35.8935386896427,2.89083434803038,50.5194677103704,-9.93216904901483,-28.4852208957488,19.2950861820309
3.91606429066519,-6.80933143561558,-27.7021323057243,1.78375921037113,-10.2393157743169,-35.5795764235013,3.06716173789799,50.207681918188,-9.78895517735882,-28.1032519232484,19.2045930309882
3.89703785029084,-6.75053441715816,-27.6914251213053,1.78210542840024,-10.2401490657833,-35.2651184657131,3.24358525373967,49.887397656374,-9.6563135989527,-27.7202215365874,19.136993089026
3.88452969422607,-6.6910719204315,-27.6788702111445,1.78043600886157,-10.2443966527857,-34.9510767879705,3.4190595015989,49.559899514924,-9.53361832889016,-27.336689528492,19.0913578128069
3.87710154154295,-6.63113972810048,-27.6646137377842,1.77866029426641,-10.2516490752104,-34.6383242776951,3.59253301307393,49.2264492400672,-9.42014830283495,-26.9533810133766,19.066608954687
3.87329258173162,-6.57092357395233,-27.6488198543863,1.77669108568209,-10.2614368611376,-34.3276884037646,3.76296115381314,48.8882740339719,-9.31510089526596,-26.5711700468192,19.0615412448613
3.87167408594541,-6.5105975496708,-27.6316674999722,1.77444687307429,-10.2732433539885,-34.0199457631911,3.92931957647353,48.5465562850692,-9.21760802521392,-26.1910603091939,19.0748474209351
3.87089472429547,-6.45032273447836,-27.6133470811653,1.7718538962822,-10.2865181201556,-33.7158175194177,4.09061795537758,48.202424797306,-9.12675427284811,-25.8141636895869,19.1051450800063
3.8697157227913,-6.3902460390775,-27.5940571384219,1.7688480026128,-10.3006906350977,-33.4159657289322,4.24591370611069,47.8569475446411,-9.04159634248468,-25.4416775605165,19.1510047615057
3.86703604007402,-6.33049925054919,-27.5740010889271,1.76537627060513,-10.3151839370279,-33.1209905449849,4.39432537141583,47.5111259402052,-8.96118316639952,-25.0748614643053,19.2109786136097
3.86190843656514,-6.27119826197858,-27.5533841296759,1.76139837314349,-10.3294279329623,-32.8314282833111,4.53504534313242,47.1658905785977,-8.88457594352918,-24.7150138674909,19.2836289626383
3.85354767479376,-6.21244247007999,-27.5324103735203,1.75688765670052,-10.3428720482197,-32.5477503307705,4.66735158882602,46.8220983864143,-8.81086743682703,-24.3634495955602,19.3675561004213
3.84133220554441,-6.15431432565774,-27.5112802784383,1.75183191804336,-10.3549969323291,-32.2703628706828,4.79061806576871,46.4805311017768,-8.73919990531153,-24.021478526108,19.4614246269059
3.82480064734819,-6.09687902511428,-27.4901884160834,1.74623386646287,-10.3653249711088,-31.9996073887421,4.90432353753856,46.1418949975766,-8.6687811195005,-23.6903860657186,19.5639877248491
3.80364423261471,-6.04018433656659,-27.4693216098927,1.74011126816322,-10.3734294006408,-31.735761913121,5.00805855708197,45.8068217613079,-8.59889800124024,-23.3714158407694,19.6741087923942
3.77769622772517,-5.98426056108183,-27.4488574562767,1.73349677775284,-10.3789418678508,-31.4790429336147,5.10153043801071,45.4758704420265,-8.52892754010479,-23.065754897024,19.7907799167355
3.74691917115823,-5.92912063658789,-27.4289632258564,1.72643746771069,-10.3815583316589,-31.2296079387617,5.18456609803835,45.149530370043,-8.45834476704402,-22.7745215527704,19.9131367417658
3.71139063077612,-5.8747603972905,-27.4097951267962,1.71899407007435,-10.3810432480116,-30.987558507982,5.25711272251406,44.8282249479048,-8.38672770621722,-22.4987559088278,20.0404693673939
3.67128806454489,-5.82115900355962,-27.3914979002845,1.71123994724138,-10.3772320308222,-30.7529438973098,5.31923625958768,44.5123162021794,-8.31375936613036,-22.2394128892306,20.1722290157005
3.62687327679619,-5.76827955556986,-27.3742047099503,1.70325981317792,-10.3700318273889,-30.5257650592511,5.37111781667256,44.2021099742318,-8.23922695660696,-21.9973575619125,20.3080303018606
3.57847688954779,-5.71606989883883,-27.3580372822146,1.69514823339974,-10.3594206902758,-30.3059790368314,5.4130480749595,43.8978616164833,-8.16301861586024,-21.7733623750653,20.4476490496168
3.52648318893939,-5.66446362274453,-27.3431062516388,1.68700794004335,-10.3454452672052,-30.0935036688826,5.44541987254111,43.5997820519636,-8.08511799331611,-21.5681058664237,20.5910156935267
3.4713156541998,-5.6133812461959,-27.3295116622253,1.67894800418028,-10.3282171630477,-29.8882225401264,5.46871913004634,43.3080440503198,-8.00559705717584,-21.3821723849726,20.7382044194929
3.4134234254456,-5.56273157968411,-27.3173435718383,1.67108190962353,-10.3079081478513,-29.6899901083016,5.4835143111567,43.022788570913,-7.92460748827096,-21.2160524147652,20.8894183137886
3.35326891321768,-5.51241325072293,-27.3066827042716,1.66352557122416,-10.2847443889149,-29.4986369424834,5.4904446287937,42.7441310219381,-7.84237099621401,-21.0701431962554,21.0449709166099
3.29131669493987,-5.46231637946889,-27.2976010947856,1.65639533705795,-10.25899987743,-29.3139750100659,5.49020722810374,42.4721672845765,-7.75916886179208,-20.9447494757016,21.205264704939
3.22802378122771,-5.41232439146555,-27.2901626812076,1.64980600863899,-10.23098921022,-29.1358029512258,5.48354359872566,42.2069793540611,-7.67533097866204,-20.8400843415122,21.3707671523068
3.16383126980106,-5.36231595390855,-27.2844238024956,1.64386890740669,-10.2010598816507,-28.9639112762931,5.47122548865599,41.9486404544487,-7.59122464257399,-20.7562701947081,21.5419851172427
3.09915733992594,-5.31216702052866,-27.2804335779279,1.63869001126321,-10.1695842422816,-28.7980874115258,5.45404060724473,41.6972194901587,-7.50724331902534,-20.693339942949,21.7194383919827
3.03439148042636,-5.26175296835821,-27.2782341516846,1.63436818365848,-10.136951287912,-28.6381205030204,5.43277841261851,41.45278470803,-7.42379560663174,-20.6512385284402,21.9036332998933
2.96988979479121,-5.2109508073947,-27.277860798966,1.6309935193373,-10.1035584500826,-28.4838058723851,5.40821627815083,41.215406464738,-7.34129459671645,-20.6298249239294,22.0950372570653
2.90597119335096,-5.15964144153025,-27.2793419008156,1.62864583327574,-10.0698035592812,-28.3349490086768,5.38110632543153,40.985159028468,-7.2601478050717,-20.6288747523105,22.2940551894833
2.84291426987192,-5.10771195573994,-27.2826988057746,1.62739332034057,-10.036077140704,-28.1913689820815,5.35216320043996,40.7621213860255,-7.1807478191902,-20.6480836768396,22.5010086039949
2.78095467166739,-5.05505790014418,-27.2879456066302,1.62729141144603,-10.0027551811694,-28.0529011746266,5.32205305536198,40.5463770688299,-7.10346376604047,-20.6870716542221,22.7161179526444
2.72028280956967,-5.00158553707634,-27.2950888669025,1.62838184706046,-9.97019247964537,-27.919399241268,5.29138397742261,40.3380130482549,-7.02863366592858,-20.7453880518474,22.9394887324913
2.66104181494143,-4.94721401439347,-27.3041273313609,1.63069198152153,-9.93871666786614,-27.790736241993,5.26069807531087,40.1371177825396,-6.95655770251836,-20.8225175288964,23.1711015629455
2.60332573005114,-4.89187742783682,-27.3150516477081,1.63423432352926,-9.90862296660644,-27.6668049202645,5.23046539408331,39.9437785255233,-6.88749241384523,-20.9178864927312,23.4108063077011
2.54717800702672,-4.83552673670689,-27.3278441153876,1.63900631156854,-9.88016973168995,-27.5475171392056,5.20107978395032,39.7580780313309,-6.82164580005744,-21.030869878327,23.6583201667302
2.49259047803911,-4.77813149899674,-27.3424784660737,1.64499031948571,-9.85357484273833,-27.4328025189416,5.1728567991508,39.5800908074537,-6.75917335368096,-21.1607979576226,23.9132295472421
2.43950303279346,-4.71968139274186,-27.3589196723381,1.65215388742346,-9.82901299289477,-27.3226063452437,5.14603365093473,39.4098790814791,-6.7001750448313,-21.3069628616363,24.1749954199018
2.38780428667025,-4.66018748870489,-27.377123778395,1.66045017556559,-9.80661394191076,-27.2168868425279,5.12077118509321,39.2474886550521,-6.64469332882475,-21.4686244915489,24.442961775157
2.33733353427617,-4.59968323628613,-27.3970377496268,1.66981863977122,-9.78646179214828,-27.1156119245343,5.09715780274813,39.0929448234647,-6.5927122755053,-21.6450155126586,24.7163667198282
2.28788425343324,-4.53822512199702,-27.418599343792,1.68018592628567,-9.76859533553351,-27.0187555537793,5.07521519580858,38.946248541455,-6.54415793706581,-21.8353451720196,24.9943557027924
2.23920935418072,-4.47589296108637,-27.4417370135953,1.69146697681513,-9.75300949982475,-26.926293855908,5.05490572459058,38.8073730156705,-6.49890006670803,-22.038801754066,25.2759963341908
2.19102826267289,-4.41278979070231,-27.4663698550878,1.70356632752718,-9.7396578942437,-26.8382011467313,5.03614122071592,38.6762608997765,-6.45675527080924,-22.2545535803811,25.5602942677981
2.14303580260404,-4.34904134801775,-27.4924076173371,1.71637957848434,-9.72845641705901,-26.7544460362181,5.01879295136495,38.5528222554506,-6.41749162252234,-22.4817485604674,25.8462096520441
2.09491270189628,-4.28479513681401,-27.5197507852642,1.72979500426596,-9.71928784358023,-26.6749877728703,5.00270243408012,38.4369334190565,-6.38083469181557,-22.7195124005928,26.1326737134905
2.04633742540254,-4.22021910669105,-27.5482907408076,1.74369527154626,-9.71200726786248,-26.5997729830689,4.98769275037025,38.328436881593,-6.34647487131294,-22.9669456673897,26.4186050964727
1.99699892891757,-4.15549998551762,-27.5779100009756,1.75795922551597,-9.70644823196158,-26.528732944286,4.97357997567191,38.2271422538044,-6.31407581612849,-23.2231199720932,26.7029256207114
1.94660985559501,-4.09084131471773,-27.6084825282413,1.77246370532812,-9.70242934835517,-26.4617815092433,4.96018432488389,38.1328283536682,-6.28328377799947,-23.48707358727,26.984575126373
1.8949196579806,-4.02646123829127,-27.6398741106077,1.78708534910038,-9.6997612063684,-26.3988137692821,4.94734060887142,38.0452464207556,-6.25373759694165,-23.757806837971,27.2625250678158
