Finger Velocity,Scap_X,Scap_Y,Scap_Z,Shoulder horiz abd-adduction,Shoulder flexion-extension,Shoulder internal-external rotation,elbow flexion-extension,forearm pronation-supination,wrist flexion-extension,wrist radial-ulnar deviation
1.82528732009283,-6.61388829017556,-24.4632240069002,2.72753955485573,-12.4196601161041,-42.0718657370342,-0.877417032818468,53.2870640023382,-22.4807389550621,-32.970854862319,16.4865967044306
2.40105182641324,-6.61016039130506,-24.4695035241007,2.76224573020922,-12.6943974829346,-41.8099482125166,-1.0576734009133,53.6225234193918,-22.1145222978526,-31.2050472138759,14.61809980487
3.03578061727346,-6.6104561488637,-24.468196755147,2.79214080476862,-12.9719194145958,-41.5340853624679,-1.24082132120455,53.9856279984347,-21.7224643470112,-29.3957735024745,12.7203777366005
3.72658475642185,-6.61486301135081,-24.4588301200112,2.81699594204003,-13.2515733719989,-41.2439149606272,-1.42662251160129,54.3770285059121,-21.3047889696273,-27.5624723763059,10.8142281405598
4.47070020595364,-6.62341533435669,-24.4409905744495,2.83663034514083,-13.5327253534164,-40.9390549564596,-1.61481106778012,54.7972769127154,-20.8619237679177,-25.7250574261343,8.92078087399472
5.2651091852727,-6.63609310180089,-24.4143286226898,2.85091110804881,-13.8147559933852,-40.6191042512139,-1.8050846012669,55.2468158589125,-20.3945036724615,-23.903079877281,7.06067112049473
6.10639770818776,-6.65282150901025,-24.3785602314375,2.85975233267335,-14.0970559451777,-40.2836442796,-1.99709584837391,55.7259674416789,-19.9033721707795,-22.1149173656615,5.25324654610452
6.99070884608618,-6.67347139421012,-24.33346768013,2.86311359310332,-14.3790209937206,-39.9322414033462,-2.190445095349,56.2349215643807,-19.3895799610787,-20.3770622060636,3.51588060821858
7.91374168681333,-6.69786049492229,-24.2788993932689,2.86099782402496,-14.660047337983,-39.5644501195047,-2.38467372469369,56.7737241799516,-18.8543808149546,-18.7035669407679,1.86344790270382
8.87077559751691,-6.72575549487887,-24.2147688063408,2.85344870253031,-14.9395274553773,-39.179817079561,-2.579259134628,57.342265844835,-18.2992244627152,-17.1056812298063,0.307993189656601
9.856710344945,-6.75687481612444,-24.1410523178735,2.84054758459768,-15.2168469185527,-38.7778859018958,-2.77361122869831,57.9402710603058,-17.7257463792909,-15.5916880383121,-1.14140076468091
10.8661170547225,-6.79089210154788,-24.0577863797754,2.82241005129646,-15.4913824742422,-38.3582027395958,-2.96707062125511,58.5672889079197,-17.1357544335291,-14.1669240649087,-2.47856463937287
11.8932969104992,-6.82744032701434,-23.9650637804236,2.7991821157766,-15.7625016079632,-37.9203225416379,-3.1589086570657,59.2226854810885,-16.5312124542969,-12.8339530685297,-3.70004770956076
12.9323453712354,-6.86611648021677,-23.8630291833717,2.77103614003105,-16.02956370563,-37.463815921588,-3.34832929840313,59.9056385744086,-15.9142208533705,-11.5928523691377,-4.80481917759611
13.9772201060508,-6.90648674304363,-23.7518740001086,2.73816650932034,-16.2919227937117,-36.9882765243633,-3.53447289013605,60.6151350184709,-15.2869945212495,-10.4415714655777,-5.79390882631233
15.0218110628317,-6.94809211158186,-23.6318306948381,2.70078511121972,-16.5489317138202,-36.4933287575963,-3.71642177298387,61.3499709468488,-14.6518382745417,-9.37632550590332,-6.67002539423659
16.0600112142479,-6.99045438077345,-23.5031666357562,2.65911666541559,-16.7999474863602,-35.9786357318182,-3.89320767828136,62.1087551636877,-14.0111201840646,-8.39199313666223,-7.43718324883103
17.0857866181481,-7.03308241082007,-23.3661776142658,2.61339394998432,-17.0443375532345,-35.4439072374647,-4.06382080489677,62.8899156558051,-13.367243156496,-7.48249619141989,-8.10035905815702
18.0932445157463,-7.07547858275737,-23.2211811501048,2.56385297042074,-17.2814865633876,-34.8889075788904,-4.22722044873387,63.6917091726796,-12.7226151837287,-6.6411463274276,-8.66519172532445
19.0766982840054,-7.11714534298664,-23.0685096922917,2.51072812008462,-17.5108033733815,-34.3134630829471,-4.38234702455946,64.5122336895429,-12.0796187143145,-5.860950147695,-9.13773176899015
20.0307281643694,-7.15759173093802,-22.9085038215043,2.45424738580608,-17.7317279710321,-33.7174690969578,-4.52813528643906,65.3494434787989,-11.4405796409656,-5.1348691796182,-9.52424096368718
20.9502368106252,-7.19633977990528,-22.7415055634596,2.39462765958694,-17.9437380815638,-33.1008962885064,-4.66352851624137,66.2011664461567,-10.8077364389647,-4.45603445094674,-9.83103930286977
21.8304988339356,-7.23293067871354,-22.5678519319215,2.33207022503379,-18.1463552689623,-32.4637960650138,-4.78749341126186,67.0651233402387,-10.1832100337572,-3.81791765410279,-10.0643939222969
22.6672036712486,-7.26693058237174,-22.3878688261999,2.26675649406215,-18.3391503921831,-31.8063049518272,-4.89903536592058,67.9389484156935,-9.56897501853584,-3.21446228818567,-10.2304432531141
23.4564912616255,-7.29793596418313,-22.2018654048261,2.1988440749861,-18.5217483175211,-31.1286478044335,-4.99721381281756,68.8202111176516,-8.96683287687471,-2.64017886740947,-10.3351491584552
24.1949801802292,-7.32557841028999,-22.0101290430649,2.12846325712129,-18.693831828652,-30.4311397792444,-5.08115726802876,69.706438358792,-8.37838788442427,-2.09020843801551,-10.3842699453469
24.8797880480175,-7.34952877016114,-21.8129209610536,2.05571399952305,-18.8551447140757,-29.7141870418601,-5.15007771639377,70.5951369787129,-7.80502636234582,-1.56035845478378,-10.383347724137
25.5085442026485,-7.36950059200147,-21.6104725887797,1.98066351201253,-19.0054940430033,-28.9782862446883,-5.20328397643668,71.4838160068861,-7.24789992897201,-1.04711474871229,-10.3377044183119
26.0793947786876,-7.38525278796079,-21.4029827193057,1.9033445128502,-19.1447516621106,-28.2240228515663,-5.24019370332247,72.3700083922733,-6.70791334019789,-0.547633038464515,-10.2524416688156
26.5910004989163,-7.39659148774835,-21.1906154928285,1.82375423590299,-19.2728549591996,-27.4520684226391,-5.26034372417124,73.2512919111366,-6.18571741945125,-0.0597132634104908,-10.1324408636531
27.0425276195742,-7.40337105071213,-20.973499247396,1.74185424041561,-19.3898069500222,-26.6631769967192,-5.26339845384833,74.1253090157673,-5.68170745458956,0.418240100132806,-9.98236054918565
27.433632597168,-7.405494218417,-20.7517262626137,1.65757105256566,-19.4956757534939,-25.8581807205475,-5.24915620781157,74.989785437769,-5.19602728714407,0.887268707462505,-9.80662953831263
27.764441149895,-7.40291140493733,-20.5253534071008,1.57079764502266,-19.5905935283319,-25.0379848771675,-5.21755330658454,75.8425474092867,-4.72857914737027,1.3479191328495,-9.60943507638631
28.035522470084,-7.39561914046759,-20.2944036775649,1.48139574095663,-19.6747549513726,-24.2035624624108,-5.16866594888131,76.6815374144269,-4.27903910339881,1.80030710145442,-9.39470638636818
28.2478594032397,-7.38365770367789,-20.0588685880748,1.38919891086451,-19.7484153247096,-23.3559484519726,-5.10270991025343,77.5048284297054,-3.84687780103616,2.24418471001522,-9.16609472581045
28.4028154428582,-7.36710799779597,-19.8187113358856,1.29401641126977,-19.8118884029568,-22.496233893591,-5.02003819305543,78.3106366530416,-3.43138598260568,2.6790084365222,-8.92695170201561
28.5020993974521,-7.34608774291555,-19.5738706419836,1.1956376927946,-19.8655440306987,-21.6255599483304,-4.92113680734207,79.0973327514639,-3.03170410014339,3.10400602975666,-8.68030797365145
28.547728567275,-7.32074707061301,-19.3242651484422,1.09383748307029,-19.909805673724,-20.7451119868247,-4.80661890125661,79.8634516759298,-2.64685518854461,3.51824068031119,-8.42885459971427
28.5419912240053,-7.29126361665831,-19.0697982532315,0.98838132848611,-19.9451479167936,-19.856113817728,-4.67721748310082,80.6077010977458,-2.27578004324837,3.92067119566552,-8.17492918682868
28.48740911891,-7.25783721712311,-18.8103632690936,0.879031455772082,-19.9720939838283,-18.9598220923859,-4.53377698319044,81.3289685169332,-1.91737366037105,4.31020722576363,-7.92050866172349
28.3867006563972,-7.2206843272772,-18.545848795423,0.765552788490637,-19.9912133118973,-18.0575209018753,-4.37724389075306,82.0263270812112,-1.57052185137567,4.68575889175042,-7.6672099988827
28.2427452637993,-7.18003230202819,-18.2761441868055,0.647718928758594,-20.0031191819575,-17.1505165633478,-4.20865667335778,82.6990401385964,-1.23413694413257,5.04628042878631,-7.41629961814952
28.0585493688731,-7.13611369629417,-18.0011449945402,0.52531789815556,-20.0084663852901,-16.2401325764891,-4.02913515298392,83.3465645307893,-0.907191527367376,5.39080764954641,-7.1687115031343
27.8372142686425,-7.08916075686201,-17.7207582549042,0.398157428356739,-20.0079488905875,-15.3277047126257,-3.83986948485934,83.9685526201351,-0.588749281960159,5.7184891827793,-6.92507345520842
27.5819060421391,-7.03940028054744,-17.4349075007869,0.266069602485979,-20.0022974701085,-14.4145761809027,-3.64210886939485,84.5648530285486,-0.277992066384536,6.02861156892671,-6.68574035526534
27.2958275309688,-6.98704900767493,-17.1435373780056,0.1289146720251,-19.9922772367833,-13.5020928046953,-3.43715012387156,85.13551005042,0.0257574196356173,6.32061841828845,-6.45083289875446
26.9821922913118,-6.93230970677915,-16.8466177525745,-0.0134160908526137,-19.9786850325573,-12.5915981394746,-3.22632624370456,85.6807616832427,0.323017889263342,6.59412395360487,-6.22028001738877
26.6442003148294,-6.87536808536871,-16.5441472034167,-0.160998603736319,-19.9623465933755,-11.684428466605,-3.01099508553627,86.2010362015632,0.614136948853399,6.84892135592844,-5.99386310204507
26.285015229756,-6.81639063079538,-16.2361558094021,-0.31387530000447,-19.9441134044521,-10.7819076018796,-2.79252830080672,86.6969471851326,0.899283931277903,7.08498639816516,-5.77126017778149
25.907742632606,-6.75552344575402,-15.9227071583638,-0.472055574787591,-19.9248591556997,-9.88534146492658,-2.57230064046388,87.1692869046645,1.1784480414658,7.30247687803817,-5.5520883248157
25.5154091702771,-6.69289209941858,-15.6038995248164,-0.635517304445494,-19.9054757110073,-8.99601237017964,-2.35167974482033,87.6190179709856,1.45144162421924,7.50172835309144,-5.33594285665661
25.1109419959277,-6.62860247286968,-15.2798661818669,-0.804209344058904,-19.8868685136594,-8.11517302108201,-2.13201652711629,88.0472631656071,1.71790823926161,7.68324664209379,-5.12243202825111
24.6971482627592,-6.56274253908773,-14.9507748345948,-0.978054865282291,-19.8699513629252,-7.24404021104999,-1.91463624568666,88.4552933912683,1.97733513225432,7.84769750159928,-4.91120633019206
24.2766943991117,-6.49538498468833,-14.6168261892661,-1.15695536321968,-19.8556405147595,-6.38378825310005,-1.70083032790288,88.8445137086305,2.22906962381856,7.99589383033941,-4.70198171886333
23.852085025447,-6.42659055485789,-14.2782517028504,-1.34079513340071,-19.8448480812496,-5.535542175003,-1.49184895959545,89.2164474595125,2.47233889717778,8.12878070995973,-4.49455643305446
23.4256415256343,-6.35641198669305,-13.9353105856683,-1.52944599687892,-19.8384747248528,-4.70037073161923,-1.28889439645636,89.5727185173766,2.7062726416811,8.24741855718309,-4.28882134659541
22.9994804651676,-6.28489838846674,-13.5882861539726,-1.72277203576833,-19.8374016627051,-3.87927930392995,-1.09311489865387,89.9150317512614,2.92992799655941,8.35296463434692,-4.0847640871029
22.5754922476833,-6.2120999188619,-13.2374816508883,-1.9206340989926,-19.8424820159727,-3.07320277465433,-0.905599139080202,90.2451518379711,3.14231623160445,8.44665314365149,-3.88246739486751
22.1553206048698,-6.13807261593948,-12.8832156781151,-2.12289385273449,-19.854531563832,-2.28299848840671,-0.727370888925633,90.5648806061892,3.34243059735083,8.52977411843163,-3.68210239051266
21.7403437066174,-6.0628832183404,-12.5258174068702,-2.32941718116281,-19.8743189939881,-1.50943941765474,-0.559383745752518,90.8760331428215,3.52927477677818,8.60365132136373,-3.48391756006816
21.3316578385617,-5.98661381277886,-12.1656217533409,-2.54007678556151,-19.9025557812729,-0.753207670584781,-0.402515648167587,91.1804129349845,3.7018913731776,8.66961936481283,-3.28822435470317
20.930064702685,-5.90936613532468,-11.8029646994569,-2.75475387652997,-19.939885869801,-0.0148884995678247,-0.257562927516622,91.4797863602614,3.85938987455219,8.72900028666615,-3.09538034910446
20.5360634344044,-5.83126535003342,-11.4381789189468,-2.97333889491735,-19.986875378845,0.705035009304494,-0.125233687501008,91.7758568733148,4.00097354580697,8.78307984669322,-2.90577091595295
20.1498483818856,-5.75246312698457,-11.0715898469764,-3.19573122583801,-20.0440025945079,1.40618637982794,-0.00614037713438005,92.0702392689879,4.12596472044244,8.8330838442113,-2.71979035544109
19.7713135524683,-5.67313984547464,-10.703512313884,-3.42183788896599,-20.1116485438392,2.08829914978515,0.0992084773868342,92.3644344309206,4.23382799790685,8.88015478307475,-2.53782336502318
19.4000643987077,-5.59350576204952,-10.3342478419178,-3.65157120666188,-20.1900884706133,2.75121908347256,0.190417302963327,92.6598050013587,4.32419090344006,8.92532921708285,-2.36022764685713
19.035437304743,-5.51380101105392,-9.96408267325851,-3.88484547709675,-20.2794845397739,3.39490506097091,0.267213076738791,92.9575524334705,4.39686163330695,8.96951610260955,-2.18731833864048
18.6765267646073,-5.43429434798734,-9.5932865610327,-4.12157271423966,-20.3798800899607,4.01942853395653,0.329455181353449,93.2586959110278,4.45184358509454,9.01347647822377,-2.01935483042008
18.3222198476588,-5.35528060001258,-9.222112320214,-4.36165755749697,-20.4911957317794,4.6249714662851,0.377145103312208,93.5640536364993,4.48934645228096,9.05780479610871,-1.85653040305089
17.9712371565345,-5.27707684732521,-8.85079610915636,-4.60499149746923,-20.6132275556159,5.21182271701019,0.410435467332458,93.8742269896285,4.50979373630318,9.10291225462574,-1.69896499555311
17.6221791334516,-5.20001741804621,-8.47955839474078,-4.85144660963174,-20.745647666502,5.78037286992173,0.429637830601171,94.1895880374299,4.5138265923811,9.1490125242726,-1.54670127967608
17.2735762897598,-5.12444783575377,-8.10860553705721,-5.10086903321403,-20.8880072002222,6.33110755722601,0.435228622132197,94.5102708295716,4.50230397632811,9.19611030974635,-1.39970409201385
16.9239417412262,-5.05071791248256,-7.73813190713498,-5.35307247158077,-21.0397418902144,6.86459936091429,0.427852606258041,94.8361668407172,4.47629910067935,9.24399323158002,-1.25786314909605
16.5718243368022,-4.97917422773909,-7.36832242597052,-5.60783201323442,-21.2001801512415,7.38149840815406,0.408323275121079,95.1669248270329,4.43709224056997,9.29222752694357,-1.12099885107838
16.215860670027,-4.91015226884489,-6.99935539217464,-5.86487857324446,-21.3685535326294,7.88252181159609,0.377619632112713,95.501955252317,4.38615994983602,9.34015805408423,-0.988870864999351
15.8548243490747,-4.84396852374952,-6.63140545382786,-6.1238942351491,-21.5440092831797,8.36844213944001,0.336878918149348,95.8404393159291,4.32516075363568,9.38691303539232,-0.861189066529876
15.4876710566105,-4.7809128137025,-6.26464657867315,-6.38450873949013,-21.7256246725897,8.84007512709193,0.287384959637985,96.1813424879335,4.2559173813591,9.43141388517799,-0.737626308292785
15.1135781337848,-4.72124113447186,-5.89925488476933,-6.64629732282339,-21.9124226371713,9.29826685868885,0.230551982549322,96.5234323349045,4.18039560622248,9.47239033743014,-0.617832376908336
14.7319776533707,-4.66516924724765,-5.53541120901806,-6.90878006341876,-22.1033882635788,9.7438806531219,0.167903934262083,96.865300307678,4.10067977982773,9.50840092154039,-0.50144840947592
14.3425821869857,-4.61286722687541,-5.17330331106112,-7.17142283854401,-22.2974855957864,10.1777838883306,0.101049570070322,97.20538706221,4.0189452009482,9.53785864136501,-0.38812097588922
13.945402705972,-4.56445513492305,-4.81312763368278,-7.43363994452135,-22.4936742516249,10.6008349934278,0.0316537797999994,97.5420107988202,3.93742754206297,9.55906150673439,-0.277515008300402
13.540758274638,-4.51999993835814,-4.45509056745331,-7.69479837654818,-22.6909253662597,11.0138708334637,-0.0385941609419704,97.873398035579,3.85838967218099,9.57022735667198,-0.169324782478679
13.129277392275,-4.47951374523246,-4.09940919510636,-7.95422371324873,-22.8882364346349,11.4176947063785,-0.10801454242924,98.1977161792206,3.78408635029834,9.56953221035179,-0.0632822340422184
12.7118910145417,-4.44295338247269,-3.7463115171602,-8.21120750330456,-23.0846446926791,11.8130651637527,-0.174972347489077,98.513107221742,3.71672740429385,9.55515119918729,0.040837971838449
12.2898174365644,-4.41022130121595,-3.39603618184083,-8.46501600894692,-23.2792387484231,12.2006858532754,-0.237912414470048,98.8177218723909,3.65844013597614,9.52530099042893,0.143217008563961
11.8645393531122,-4.38116776208823,-3.0488317574122,-8.71490012259312,-23.4711682434215,12.5811965590817,-0.295393444649612,99.1097534315679,3.61123178745888,9.47828252927805,0.243994250103255
11.4377735314232,-4.35559422468267,-2.70495559301663,-8.96010623655843,-23.659651391705,12.9551655879185,-0.346119676139488,99.3874707230051,3.57695295957261,9.41252291505306,0.343273317929476
11.011433647659,-4.33325784110601,-2.36467231701748,-9.19988781014582,-23.843980312069,13.3230836215225,-0.388969125845487,99.6492494219527,3.5572628938193,9.32661528516858,0.441131429211549
10.5875869585083,-4.31387693231279,-2.0282520234277,-9.4335173444626,-24.0235241441824,13.6853591356672,-0.42301743248566,99.8936011505086,3.55359752428686,9.219355693795,0.537631399273718
10.1684056169047,-4.29713730728165,-1.69596820030446,-9.6602984470803,-24.1977300196511,14.042315474109,-0.447556498308189,100.11919975885,3.56714117846634,9.08977612022586,0.632835420023118
9.75611360801392,-4.28269926877843,-1.36809545827759,-9.87957765196475,-24.3661220393918,14.3941896528231,-0.462107309804253,100.324904274748,3.59880275077059,8.93717290584248,0.726819557903442
9.35293049090142,-4.27020513685083,-1.04490711862453,-10.0907556598292,-24.5282984787275,14.7411329455921,-0.466426510278081,100.509778082685,3.64919708141823,8.76113007821258,0.819687811212287
8.96101339117623,-4.25928711365608,-0.726672715953983,-10.2932976816559,-24.6839274950432,15.0832132611434,-0.460506495981667,100.673103985705,3.7186321434775,8.56153715281071,0.911584552928601
8.58239900023634,-4.24957531021518,-0.413655463605281,-10.4867426008532,-24.8327416502126,15.4204192698841,-0.444569009721406,100.814394905186,3.80710247856508,8.33860108757967,1.00270426614685
8.21894768173638,-4.24070575516928,-0.106109725730311,-10.6707107123918,-24.9745315855181,15.7526661850514,-0.419052408412967,100.933400082527,3.91428913896016,8.09285210368614,1.09329764979953
7.87229212687815,-4.23232820540982,0.195721459722601,-10.8449098460219,-25.1091392024001,16.079803054335,-0.384592982133201,101.030106757371,4.03956620287763,7.82514310235417,1.18367342303297
7.54379327026359,-4.22411357773749,0.491608761904294,-11.0091397321568,-25.236450705651,16.401621372827,-0.342000900545218,101.104737403851,4.18201373995269,7.5366424368737,1.27419547328719
7.2345062834093,-4.21576082133495,0.78133879974754,-11.1632945195745,-25.3563898516026,16.7178647863396,-0.292231555384202,101.157742704833,4.34043692437124,7.22881986733322,1.36527535122341
6.94515929449142,-4.20700305672176,1.06471621360919,-11.3073634000241,-25.4689117086494,17.0282396205094,-0.2363532485866,101.189790531041,4.51339083324997,6.90342564529047,1.45736047807592
6.67614694176579,-4.19761282101934,1.34156554596902,-11.4414293355782,-25.5739971821321,17.3324259523439,-0.17551233302239,101.201751265664,4.69921033454504,6.56246284412752,1.55091875464072
6.42753990294548,-4.18740628216469,1.61173292318984,-11.5656659241511,-25.6716484856257,17.6300889395695,-0.110897030032116,101.194679874526,4.89604435905908,6.20815325606728,1.64642050681225
6.19911018762451,-4.17624631476447,1.87508753835723,-11.6803324818778,-25.761885661688,17.9208901354227,-0.0437012097923821,101.169795166975,5.10189375228364,5.84289740347806,1.74431884514724
