Finger Velocity,Scap_X,Scap_Y,Scap_Z,Shoulder horiz abd-adduction,Shoulder flexion-extension,Shoulder internal-external rotation,elbow flexion-extension,forearm pronation-supination,wrist flexion-extension,wrist radial-ulnar deviation
0.638262432762663,-12.1370183283969,-19.3208433270872,2.0181898720615,-2.35332229752379,-55.5206033832393,-1.23415016106752,61.7137385403714,-29.5622343797185,-23.613060501332,4.48778201824825
0.731045207682842,-12.1167418004032,-19.30445712218,2.04434983355148,-2.50819426780306,-55.4444793908052,-1.37008270688657,61.7157405843609,-29.4712574095505,-23.5369460124414,4.28436699966916
0.861169682429865,-12.0955924749675,-19.2888780772427,2.06940374602971,-2.66082101665828,-55.3571913570881,-1.5067658077934,61.7155196409542,-29.3785287988927,-23.4484106683614,4.06780549443036
1.02806602450687,-12.0734289174053,-19.2741360303132,2.09311042694175,-2.80974257571836,-55.2579491414122,-1.64339692924891,61.7124011677473,-29.2844718543382,-23.3470548732894,3.83875727401856
1.22984805818657,-12.0500826896083,-19.2602323992718,2.11525097162576,-2.95351295368267,-55.1459975271823,-1.77921891551463,61.7056797494437,-29.189534943695,-23.2325953632825,3.59801772831613
1.46439197807342,-12.0253595086362,-19.2471396648742,2.13563256458237,-3.09072391584077,-55.0206244167151,-1.91354077688696,61.6946295171843,-29.0941892045204,-23.1048704600996,3.34650625761199
1.72971739229281,-11.9990412478193,-19.2348015105007,2.15409156701454,-3.22002786004247,-54.8811683930773,-2.04575724166525,61.6785152001923,-28.998925490157,-22.9638432192985,3.08525201332585
2.02401196921081,-11.970888742489,-19.2231336085571,2.17049583766096,-3.34015911628668,-54.7270255278584,-2.1753663136138,61.6566034491774,-28.9042504587644,-22.8096025281653,2.81537739718225
2.34554395901419,-11.9406453291144,-19.2120250348361,2.18474627197096,-3.44995302179926,-54.5576553377419,-2.30198410250883,61.6281740424574,-28.8106817831105,-22.6423622627714,2.53807981178867
2.69256575263507,-11.9080410165135,-19.201340283919,2.19677756738768,-3.54836217381429,-54.3725858133907,-2.42535625287991,61.5925305678248,-28.7187425208984,-22.4624586421321,2.25461222108389
3.0632387337225,-11.8727971631798,-19.1909218496243,2.20655824033086,-3.63446934771405,-54.1714174605784,-2.54536538603841,61.5490101672356,-28.6289547345502,-22.27034591216,1.96626312349964
3.45558295601983,-11.834631516751,-19.1805933244964,2.21408993426498,-3.70749669403136,-53.9538263065088,-2.66203409192364,61.4969919414656,-28.5418324924135,-22.0665904572067,1.6743365574435
3.86744786758669,-11.7932634604307,-19.1701629621548,2.2194060690799,-3.76681099028226,-53.7195658355532,-2.77552315733311,61.4359036418485,-28.4578744224564,-21.8518634054517,1.38013274912876
4.29649945848613,-11.7484193063645,-19.1594276368614,2.22256989122529,-3.81192490942146,-53.468467830246,-2.88612489148844,61.3652263274997,-28.3775560188491,-21.626931818145,1.08492999171581
4.74022002605784,-11.6998374766547,-19.1481771262388,2.22367199265668,-3.84249445947834,-53.2004421063499,-2.99425160148633,61.2844967385299,-28.3013219183859,-21.3926486625969,0.789968325736272
5.19591772653114,-11.6472734177484,-19.1361986355838,2.22282737501605,-3.8583129343613,-52.9154751449364,-3.10041946810086,61.1933072275876,-28.2295783732283,-21.1499419359725,0.496435565646342
5.66074384410671,-11.5905041027465,-19.1232814760468,2.22017214309606,-3.85930187876457,-52.6136276403984,-3.20522826234305,61.0913032013919,-28.1626861568768,-20.8998034418305,0.205456153662273
6.13171623134242,-11.5293319888693,-19.1092218052168,2.21585991691912,-3.84549969159195,-52.295031004232,-3.30933750943085,60.9781781450666,-28.1009541537694,-20.6432777306578,-0.0819168104697493
6.60574771109403,-11.4635883144806,-19.0938273384292,2.21005805314263,-3.81704855745573,-51.9598828929721,-3.41343983842956,60.8536664245961,-28.044633894654,-20.381451582806,-0.364706208072309
7.07967843808359,-11.3931356422671,-19.076921942419,2.20294376424132,-3.77418040334253,-51.6084418636313,-3.51823235284115,60.7175341736461,-27.9939153011719,-20.1154442193835,-0.642012255455191
7.55031134202227,-11.3178695821119,-19.0583500287755,2.19470021971644,-3.71720253778314,-51.2410212965669,-3.62438692739634,60.5695686599708,-27.9489238853198,-19.8463982853078,-0.913010778614878
8.01444984519895,-11.2377196575408,-19.0379806717172,2.18551270889672,-3.64648355622505,-50.8579827590258,-3.73252038446597,60.4095665900233,-27.9097196090562,-19.575471606673,-1.17694871246478
8.4689370863555,-11.1526493114153,-19.0157113817245,2.1755649406132,-3.56244000102593,-50.4597290099307,-3.8431655285785,60.2373218505512,-27.8762975520561,-19.3038297392611,-1.43313719210386
8.91069590320083,-11.0626550779686,-18.9914714724784,2.16503555171878,-3.46552415755088,-50.04669686638,-3.95674401473983,60.0526132067604,-27.8485904738447,-19.0326393226726,-1.68094267020209
9.33676883705775,-10.9677649780732,-18.965224962862,2.15409489382828,-3.35621325553248,-49.6193501631001,-4.07354199066329,59.8551924795638,-27.8264732990692,-18.7630622062396,-1.91977657952585
9.74435743080934,-10.868036222112,-18.9369729590523,2.14290216458251,-3.23500023030556,-49.1781730350256,-4.19368938108916,59.6447737081707,-27.8097695003765,-18.4962502422296,-2.14908415013575
10.1308600994405,-10.7635523289311,-18.9067554653211,2.13160294439586,-3.10238608518109,-48.7236637383787,-4.31714357346032,59.4210237669526,-27.7982592968039,-18.233340575378,-2.36833306625199
10.4939078636935,-10.6544197879526,-18.8746525775606,2.12032719042731,-2.95887379086096,-48.2563291977866,-4.44367812378914,59.1835548474672,-27.7916895258324,-17.9754511989842,-2.57700270004888
10.8313972534883,-10.5407644026116,-18.8407850214826,2.10918772618825,-2.8049635701948,-47.7766804290007,-4.57287694253454,58.9319191409837,-27.7897849872532,-17.7236764954411,-2.77457468917856
11.1415197101133,-10.4227274565793,-18.8053140075053,2.09827924928539,-2.64114935441297,-47.285228942044,-4.70413425556385,58.6656059689074,-27.7922609971225,-17.4790824415134,-2.96052562312495
11.4227868458138,-10.3004618408495,-18.7684403854681,2.08767786314247,-2.46791616040324,-46.7824841822474,-4.83666046789165,58.3840415140624,-27.7988368280486,-17.2427011444121,-3.13432255296069
11.6740509572488,-10.1741282704641,-18.7304030938902,2.07744112194141,-2.2857381224797,-46.2689520213521,-4.96949388383801,58.086591210857,-27.8092496481181,-17.0155243851088,-3.29542192935586
11.8945202363819,-10.0438917048702,-18.6914769107583,2.06760856142328,-2.09507691337589,-45.7451342701818,-5.10151805619085,57.7725647623067,-27.8232685097816,-16.7984958808244,-3.44327240587073
12.0837681799448,-9.90991806685334,-18.6519695260105,2.05820267178496,-1.89638030826448,-45.2115291483992,-5.23148435420548,57.4412236712714,-27.8407078897314,-16.5925020374644,-3.57732172464904
12.2417367682276,-9.77237133398062,-18.6122179689152,2.04923025416845,-1.69008068197417,-44.6686326161443,-5.35803916294751,57.0917911053538,-27.8614402489863,-16.3983610404936,-3.69702763838434
12.3687330675952,-9.63141105599347,-18.5725844344089,2.04068409162155,-1.47659328162176,-44.1169404482511,-5.47975496480507,56.7234638611221,-27.8854070745083,-16.2168102470104,-3.80187252391324
12.4654190112716,-9.48719033300824,-18.5334515600663,2.03254486010586,-1.25631418272783,-43.5569509137282,-5.59516441969737,56.3354261538045,-27.9126278825534,-16.0484920415181,-3.8913810171485
12.5327942324699,-9.33985427225717,-18.4952172107938,2.02478320385463,-1.02961791028257,-42.9891679095531,-5.70279645858638,55.9268649329433,-27.9432067111495,-15.8939386252274,-3.96513967283069
12.5721719660612,-9.18953892392018,-18.4582888344055,2.01736190074534,-0.796854775168841,-42.4141043881957,-5.80121333303511,55.4969864110483,-27.977335704406,-15.7535565571356,-4.02281738156473
12.5851482027254,-9.03637067845846,-18.4230774611332,2.01023804833589,-0.558348029890549,-41.8322859130626,-5.88904752140018,55.045033487236,-28.0152954902573,-15.6276121275149,-4.0641851226856
12.5735644752522,-8.88046608949247,-18.3899914354294,2.00336521144422,-0.314390981502789,-41.2442541748323,-5.96503738527093,54.5703037463153,-28.0574521663003,-15.5162187328561,-4.08913362531823
12.5394648810205,-8.72193206988696,-18.3594299879303,1.99669548648615,-0.0652442149985116,-40.6505703042109,-6.02806050429921,54.0721677126091,-28.1042508258525,-15.4193273505463,-4.09768763784557
12.4850481953921,-8.56086639704151,-18.3317767757923,1.99018145194319,0.188866919956886,-40.0518178237976,-6.07716369471368,53.5500870373603,-28.1562056740181,-15.3367210561825,-4.09001573188971
12.4126162011744,-8.39735845821035,-18.3073935367296,1.983777983498,0.447754417996308,-39.4486050944882,-6.11158883015988,53.0036323009905,-28.2138869026989,-15.2680143312934,-4.06643486262473
12.3245196368921,-8.23149016760515,-18.2866140122839,1.97744391429698,0.711269199308223,-38.8415671298133,-6.13079372304448,52.4325001166838,-28.2779046143626,-15.2126576708408,-4.02740925518573
12.2231034319144,-8.06333699190033,-18.2697382967573,1.9711435171618,0.979302056021359,-38.2313666730558,-6.13446748376043,51.8365292263776,-28.3488902013405,-15.1699477134561,-3.97354356337602
12.1106531228717,-7.89296902728358,-18.2570277593951,1.96484778068543,1.25178386692427,-37.6186944554264,-6.12253995188572,51.2157152797294,-28.4274756916845,-15.139042803831,-3.90557061494805
11.989344500745,-7.72045207826066,-18.2487006704485,1.95853544940999,1.52868498849647,-37.0042685783723,-6.09518498400346,50.5702239771389,-28.5142716586353,-15.1189835898932,-3.82433437587234
11.8611985862224,-7.54584869579503,-18.2449286393658,1.95219380167921,1.81001373464954,-36.3888329876168,-6.05281757696466,49.9004022374509,-28.6098443595881,-15.1087179792272,-3.73076900224081
11.7280439395558,-7.36921913980599,-18.2458339477211,1.94581914577091,2.0958138686117,-35.7731550284182,-5.99608498805775,49.2067870222356,-28.7146928283537,-15.1071295302313,-3.62587499137821
11.5914880565255,-7.19062223810796,-18.2514878316051,1.93941702274668,2.38616105221914,-35.1580220908463,-5.92585217271436,48.4901114201459,-28.8292266973666,-15.1130681453351,-3.51069349925597
11.4528991768421,-7.010116120524,-18.2619097383648,1.93300211250523,2.68115822992255,-34.5442373732987,-5.84318199496736,47.7513075773906,-28.95374557414,-15.125381809242,-3.38627987370611
11.3133992500048,-6.82775881430937,-18.2770675512781,1.926597849438,2.98092996397655,-33.9326148134426,-5.74931078466932,46.9915060617013,-29.0884208306365,-15.1429480964852,-3.25367738621563
11.1738681053616,-6.64360869735863,-18.2968787445679,1.92023576694425,3.28561578136954,-33.3239732569488,-5.64561992842751,46.212031273403,-29.2332806711948,-15.164704218793,-3.11389206199205
11.0349581190077,-6.45772482021383,-18.3212124031115,1.91395460448657,3.59536264108321,-32.7191299546182,-5.53360429036781,45.4143925763384,-29.3881993084184,-15.1896744457603,-2.96786943182328
10.8971179360134,-6.27016712457157,-18.3498920192264,1.90779922293231,3.91031668033179,-32.1188934984671,-5.41483835475367,44.6002709216136,-29.552890984702,-15.2169938187211,-2.81647395805005
10.7606231714111,-6.08099659969148,-18.382698964275,1.90181937879766,4.23061444701986,-31.5240563281074,-5.29094105009569,43.7715008802964,-29.7269094239512,-15.2459272243545,-2.66047180229932
10.6256115471241,-5.89027542431459,-18.4193765246852,1.89606840366122,4.55637386778674,-30.9353869602072,-5.16354024491944,42.9300481805087,-29.9096530839293,-15.275883111888,-2.50051749074541
10.4921196738842,-5.69806713997925,-18.4596343874522,1.89060182524924,4.88768522997774,-30.353622115385,-5.03423790263386,42.0779830491866,-30.1003763105451,-15.3064213959142,-2.33714489468848
10.3601186792456,-5.50443689553357,-18.5031534550387,1.88547595916245,5.22460246650279,-29.7794589394005,-4.90457685671644,41.2174498785634,-30.2982061842174,-15.3372553437201,-2.17076279083667
10.2295461086805,-5.30945179604275,-18.5495908613523,1.88074650003281,5.5671350258588,-29.2135475398605,-4.77601012232698,40.3506339597187,-30.5021645164903,-15.3682474800862,-2.00165510833722
10.1003319555584,-5.11318138252409,-18.5985850520093,1.87646714563733,5.91524059171816,-28.6564840829744,-4.64987359229689,39.4797262332081,-30.7111941298,-15.3993997598066,-1.82998581626579
9.97241725944517,-4.91569825912644,-18.649760790762,1.87268828877988,6.2688188924381,-28.1088047087173,-4.52736286633344,38.6068871794168,-30.9241882636744,-15.4308384762177,-1.65580825781502
9.84576439364502,-4.71707886954416,-18.7027339659731,1.86945580220839,6.62770681113155,-27.5709805171142,-4.40951482782105,37.7342110893099,-31.1400217240315,-15.4627945995305,-1.47907859410744
9.72035888360722,-4.51740440657072,-18.7571160966403,1.86680992127475,6.99167496924837,-27.0434138481171,-4.29719441633276,36.8636920052395,-31.357582252632,-15.4955804497525,-1.29967288587023
9.59620330238221,-4.31676182215946,-18.8125184709241,1.86478420523623,7.36042590890554,-26.5264360264418,-4.19108685714646,35.997192593815,-31.5758005571622,-15.5295637592242,-1.11740722808759
9.47330442808464,-4.11524489317448,-18.8685558826833,1.86340454232934,7.73359394111637,-26.0203066809118,-4.09169541504464,35.1364171072212,-31.7936775124996,-15.5651402325951,-0.932060269425545
9.35165537816494,-3.91295529002965,-18.9248499561284,1.86268816411487,8.11074666050915,-25.5252146845881,-3.99934454735781,34.2828894099369,-32.0103072132596,-15.6027056745519,-0.743397387524284
9.23121481989942,-3.71000358989992,-18.9810320634157,1.86264265162842,8.49138805626651,-25.041280699988,-3.91418814465456,33.4379368057423,-32.2248948119605,-15.6426286755389,-0.55119573714595
9.1118855674765,-3.50651017247852,-19.0367458477288,1.86326494297561,8.8749630794609,-24.5685612513098,-3.83622237022035,32.6026801146235,-32.4367683944943,-15.6852247678634,-0.355269330738218
8.99349489522593,-3.30260593542249,-19.0916493698389,1.86454037975456,9.26086346505715,-24.107054181878,-3.76530244711836,31.7780301447538,-32.645384500025,-15.7307328935691,-0.155493253739393
8.8757787194083,-3.09843277024453,-19.1454169027559,1.86644185125093,9.64843455846266,-23.6567052920115,-3.70116260215716,30.9646904037692,-32.8503272637331,-15.7792949363356,0.0481739251486022
8.75837144011282,-2.89414374822682,-19.1977404074313,1.86892910906528,10.0369828643862,-23.2174158946052,-3.64343826931466,30.163165615612,-33.0513015293783,-15.8309389435448,0.255670492239903
8.64080272169858,-2.68990297934198,-19.2483307302256,1.87194833210176,10.4257840192892,-22.7890509792632,-3.59168959003712,29.3737753719194,-33.2481206243392,-15.8855665033608,0.466815561473916
8.52250187418229,-2.48588512280068,-19.2969185667406,1.87543202414981,10.8140908877349,-22.3714476479643,-3.5454252291591,28.5966720635029,-33.4406897888225,-15.9429445594754,0.681297439839705
8.40280984138455,-2.28227454201262,-19.3432552346904,1.87929932327498,11.2011415000222,-21.9644234803181,-3.50412555218601,27.8318621138571,-33.6289864804177,-16.0027017603313,0.89866695870542
8.28099817180853,-2.07926410620882,-19.3871132913549,1.88345678924601,11.5861665860751,-21.5677845035563,-3.46726427593607,27.0792294740885,-33.8130389175497,-16.0643292654339,1.11833611861617
8.15629380763728,-1.87705364500102,-19.4282870210844,1.88779970457747,11.968396516474,-21.181332476948,-3.43432780224352,26.3385603374548,-33.9929042680456,-16.1271857789388,1.33958214376679
8.02790812437215,-1.6758480635194,-19.4665928077593,1.89221387589007,12.3470675276381,-20.8048712483447,-3.40483157374712,25.6095680894513,-34.1686478249011,-16.1905064537575,1.56155677919176
7.89506841651277,-1.47585512926956,-19.501869398507,1.89657786884445,12.7214271738992,-20.438212000569,-3.37833296137227,24.8919176170347,-34.3403243451495,-16.2534152051477,1.78330040694748
7.75704995857978,-1.27728295085175,-19.5339780607557,1.90076557029075,13.0907390070494,-20.081177276562,-3.35444040915975,24.1852482430784,-34.5079624799822,-16.3149398836758,2.0037603274642
7.61320686028694,-1.08033718363863,-19.5628026356598,1.90464895369702,13.4542865311779,-19.7336037512217,-3.3328188069609,23.4891947126585,-34.6715529264508,-16.3740296784797,2.22181236804786
7.46300014903288,-0.885218017349221,-19.5882494950567,1.90810092518642,13.8113765161955,-19.3953437971128,-3.31319130153648,22.8034058197832,-34.831040618127,-16.4295740593204,2.4362848583458
7.30602181305099,-0.69211702298112,-19.6102474129129,1.91099814159395,14.1613417763093,-19.0662659606468,-3.2953379580917,22.1275604106266,-34.9863209768566,-16.4804225397039,2.64598396262434
7.14201388408444,-0.501213957593751,-19.6287473632781,1.91322371365682,14.5035435309362,-18.7462545167021,-3.27909182637711,21.4613806198899,-35.1372399957811,-16.5254045734023,2.84971938115901
6.97088199299146,-0.312673639926724,-19.6437222552114,1.9146697310308,14.8373734688703,-18.4352082993102,-3.26433304257386,20.8046422866006,-35.283597729159,-16.5633489845835,3.04632951480919
6.79270316637104,-0.126643014627457,-19.6551666129689,1.91523956533466,15.1622556354919,-18.1330390138073,-3.25098161624927,20.1571825582917,-35.425154630011,-16.5931024562213,3.23470530401422
6.60772792704282,0.0567514814467162,-19.6630962086101,1.91484991911423,15.4776482589428,-17.8396692230618,-3.23898952330923,19.5189047350651,-35.5616400985913,-16.6135467343868,3.41381208247913
6.41637700433703,0.23740614676452,-19.6675476535965,1.91343259166635,15.7830456246171,-17.5550301705708,-3.2283326658164,18.8897804350242,-35.6927625778324,-16.6236143307465,3.5827089126166
6.21923314695424,0.415241742098154,-19.6685779538535,1.91093592860155,16.0779800976357,-17.2790595636552,-3.21900318072587,18.2698491879207,-35.8182205512587,-16.6223026158579,3.74056498593413
6.01702866208545,0.590204630371409,-19.6662640275993,1.90732591462502,16.3620243798259,-17.0116994016947,-3.21100249148888,17.6592155925205,-35.9377138584889,-16.6086862835161,3.88667276970653
5.81062938329836,0.76226725018429,-19.6607021774143,1.90258686386816,16.6347940710564,-16.7528939078617,-3.20433540630314,17.0580442104873,-36.050954831589,-16.5819282220726,4.02045766170874
5.60101580195682,0.931427854060051,-19.6520074993859,1.89672166462302,16.8959505842266,-16.5025876116578,-3.19900548005491,16.4665524149176,-36.1576788504275,-16.5412888508405,4.14148398902362
5.38926208894391,1.09770945865024,-19.6403132050724,1.88975154797789,17.1452044382003,-16.2607236280542,-3.19501177589807,15.8850014584007,-36.2576539921385,-16.4861339708305,4.24945726775048
5.17651369161327,1.26115797816911,-19.6257698283663,1.88171537106016,17.382318923252,-16.0272421782466,-3.1923470856788,15.3136860664588,-36.3506894978153,-16.4159411417542,4.3442227315073
4.96396412152472,1.42183954455793,-19.6085442898801,1.87266843097203,17.6071140994278,-15.8020793920021,-3.19099759421918,14.7529228956276,-36.4366428078785,-16.3303045458949,4.42576023300712
4.75283145801743,1.5798370567077,-19.5888187953361,1.86268084991713,17.8194710498426,-15.5851664230088,-3.19094390089348,14.2030382249437,-36.5154249453852,-16.2289382612527,4.49417571777356
4.54433498792195,1.73524604275064,-19.5667895496203,1.85183559142811,18.0193362687236,-15.3764288993574,-3.19216324482717,13.6643552793155,-36.5870040702221,-16.1116778587362,4.54968956055443
4.33967229073019,1.88816995864278,-19.5426652731019,1.84022618028224,18.2067260200826,-15.1757867222885,-3.19463271991743,13.13718161204,-36.6514070949597,-15.9784802546714,4.59262214739063
4.13999697120971,2.03871507770613,-19.5166655113734,1.82795420547432,18.38173046216,-14.9831542163136,-3.19833321539008,12.6217969945154,-36.7087193450558,-15.8294217771681,4.6233771826601
3.94639715014061,2.18698514634856,-19.4890187343183,1.81512668887988,18.544517301483,-14.7984406217618,-3.20325377972125,12.1184422655584,-36.7590823538571,-15.6646944469635,4.6424232971558
3.75987476362954,2.33307599115006,-19.4599602261943,1.80185340407475,18.6953347229398,-14.6215509072921,-3.20939608307907,11.6273095767572,-36.8026899914369,-15.4846005471153,4.65027461919988
