Finger Velocity,Scap_X,Scap_Y,Scap_Z,Shoulder horiz abd-adduction,Shoulder flexion-extension,Shoulder internal-external rotation,elbow flexion-extension,forearm pronation-supination,wrist flexion-extension,wrist radial-ulnar deviation
0.635085098367556,-9.06180243183189,-25.1148777164376,6.03190393553308,-17.5603681066037,-48.8676340965968,-11.4563590248032,59.2496396040367,-24.1194213777687,-43.5767576651957,29.9058253425985
0.699777514508605,-9.02959042308033,-25.1049686308666,6.0439749460381,-17.5857116777742,-48.8232901183981,-11.5277586849131,59.2438865285857,-24.0483332097344,-43.5018660620365,29.7028743144681
0.793925871370594,-8.99226064434464,-25.0956319695908,6.05719211541669,-17.6068423688814,-48.7698813579818,-11.595390492592,59.2350693807789,-23.9762807033567,-43.4200994209919,29.4897939216298
0.919953702767957,-8.94951241285539,-25.0868528483525,6.07153683095619,-17.6229329608874,-48.706499363891,-11.6583105685794,59.2228143929311,-23.9036663724455,-43.3313330153736,29.2673018204091
1.07815626556202,-8.90107584715991,-25.0785947078681,6.0869658882665,-17.6331553885249,-48.6322299590539,-11.715608850613,59.206739314592,-23.8308991434664,-43.235474626321,29.0361897466093
1.26761348025354,-8.84671794765376,-25.0707981006157,6.10340831703045,-17.6366911553258,-48.5461624089064,-11.7664245744872,59.1864538753351,-23.758392052066,-43.1324633451384,28.7973110262433
1.48690524718977,-8.78624828738418,-25.0633798438528,6.12076252765743,-17.6327415953701,-48.4473992598051,-11.8099611533125,59.1615599014617,-23.6865603433573,-43.0222684352027,28.5515676066192
1.7344715095605,-8.71952414314129,-25.0562325685926,6.13889392739929,-17.6205376897814,-48.3350667176445,-11.8455001109172,59.1316510498057,-23.6158197975347,-42.9048883922894,28.2998969351956
2.00872754385627,-8.64645489973136,-25.0492246928028,6.15763315510364,-17.5993491434645,-48.2083254045454,-11.8724137187775,59.0963121337497,-23.5465850930763,-42.7803502310784,28.0432589302213
2.30806509455047,-8.56700557077349,-25.0422008430418,6.1767750767761,-17.5684924382146,-48.0663813052228,-11.8901759862723,59.0551180306705,-23.4792680358472,-42.6487089368266,27.7826232190636
2.6308168125432,-8.48119929533228,-25.0349827430926,6.19607866938036,-17.527337606192,-47.908496694172,-11.8983716654633,59.0076321774284,-23.4142755163151,-42.510046995566,27.518956798807
2.97521826795698,-8.38911869000583,-25.0273705819377,6.21526789767873,-17.475313516055,-47.7340008184501,-11.8967029586225,58.9534046814275,-23.3520071009715,-42.3644739518914,27.2532122974393
3.3393794003971,-8.29090596080076,-25.0191448672102,6.23403365854184,-17.411911533122,-47.5423000974366,-11.8849936633054,58.8919700986041,-23.2928522124193,-42.212125998868,26.9863170514265
3.72126786645772,-8.18676170834875,-25.0100687637614,6.25203683062813,-17.3366875012603,-47.3328875914078,-11.8631905574582,58.8228449557329,-23.237186902098,-42.0531656389363,26.7191632360084
4.11870343534638,-8.07694239275696,-24.9998909089633,6.26891242762618,-17.2492620900905,-47.1053514885519,-11.8313619142825,58.7455251224308,-23.1853702670213,-41.887781459673,26.4525992812334
4.52936172063259,-7.96175645897289,-24.9883486851979,6.28427481350177,-17.1493196460866,-46.8593823704664,-11.7896931403112,58.6594831677441,-23.1377406045994,-41.7161880584009,26.1874227871704
4.95078552475176,-7.841559159155,-24.9751719151798,6.29772390018856,-17.0366057690982,-46.594779043496,-11.7384796458764,58.564165864437,-23.0946114372935,-41.5386261366109,25.9243751191976
5.38040229124538,-7.71674614551104,-24.9600869287794,6.30885221177363,-16.9109238965418,-46.3114527674346,-11.6781171758018,58.4589920251127,-23.0562675715003,-41.3553627733685,25.6641378199035
5.81554639223043,-7.58774594524275,-24.942820933652,6.31725266356531,-16.7721312093423,-46.0094297694169,-11.6090899364586,58.3433508614677,-23.0229613792728,-41.1666918825454,25.4073309264127
6.25348516560278,-7.45501146650711,-24.9231066089919,6.32252687024321,-16.6201341767289,-45.6888519912957,-11.5319569424455,58.2166010471755,-22.9949095002055,-40.9729348673018,25.1545132407742
6.69144775274589,-7.31901071761812,-24.9006868338276,6.32429376752392,-16.454884037357,-45.3499760742735,-11.447337068003,58.0780706357766,-22.9722901479599,-40.7744415024529,24.9061845649919
7.12665588358309,-7.18021694931095,-24.8753194581804,6.32219830989746,-16.2763724799401,-44.9931706279651,-11.3558933246875,57.9270579413038,-22.9552411720865,-40.571591089008,24.6627898683823
7.55635582440813,-7.03909845173391,-24.846782024818,6.31591999533644,-16.084627744273,-44.6189118613127,-11.2583168977154,57.7628334386036,-22.9438589784562,-40.364793921583,24.4247252881786
7.9778507558336,-6.89610825388357,-24.8148763486858,6.30518096761367,-15.8797113180513,-44.2277776738332,-11.1553114588716,57.5846426901804,-22.9381983585664,-40.1544930722914,24.1923457650738
8.38853289147182,-6.75167398246375,-24.7794328599898,6.28975345835677,-15.6617153591036,-43.8204403216735,-11.0475782361313,57.3917102613392,-22.9382732230909,-39.9411664065398,23.9659739818027
8.78591468824016,-6.60618813870638,-24.7403146177906,6.26946635334337,-15.4307609268124,-43.3976577858588,-10.9358022630419,57.1832445469937,-22.944058181682,-39.7253286020773,23.7459101130044
9.16765854018217,-6.45999904561648,-24.6974209070034,6.24421069772275,-15.186997057814,-42.9602639818359,-10.8206401580843,56.9584434033779,-22.9554908653117,-39.5075327667968,23.532441731765
9.53160439171073,-6.31340270481913,-24.6506903436348,6.21394398830996,-14.9306006665684,-42.5091579631731,-10.7027097001394,56.7165004582196,-22.9724748538847,-39.288371093768,23.3258530911469
9.8757947544611,-6.1666357817442,-24.6001034277312,6.17869313431437,-14.6617771928318,-42.0452922912074,-10.5825813776877,56.4566119644119,-22.9948830486956,-39.0684739104224,23.1264329497985
10.198496665003,-6.0198699106035,-24.5456844955361,6.1385559994251,-14.3807618625752,-41.5696607681372,-10.4607720028781,56.1779840631699,-23.0225613118971,-38.8485065125547,22.9344801670033
10.4982201784976,-5.87320747754285,-24.4875030278271,6.09370146842718,-14.0878213848441,-41.0832857629249,-10.3377403999086,55.8798403299833,-23.0553321835007,-38.6291633290089,22.7503064549565
10.7737330556566,-5.72667900234307,-24.425674270916,6.04436801246614,-13.7832558803764,-40.5872053933991,-10.2138851018913,55.5614294881139,-23.0929984864562,-38.4111592087943,22.5742359188949
11.0240713665298,-5.58024219578705,-24.360359125673,5.99086076162205,-13.4674008306797,-40.0824608563951,-10.0895439240434,55.2220331891215,-23.1353466479849,-38.1952179120455,22.4066013011355
11.2485458040931,-5.43378272041946,-24.2917632650485,5.93354713299873,-13.1406288474333,-39.5700842118474,-9.96499522417685,54.8609737772701,-23.1821496010965,-37.9820581812599,22.2477371390245
11.446743572721,-5.2871166270971,-24.2201354557039,5.87285110505903,-12.8033510881778,-39.0510869217674,-9.84046061168217,54.4776219735723,-23.2331691795292,-37.7723780389397,22.0979703201421
11.6185257908839,-5.1399943811626,-24.1457650833586,5.80924626981251,-12.456018180798,-38.5264494234937,-9.7161088237039,54.0714044347175,-23.2881579745851,-37.5668381660735,21.9576087397402
11.764020423409,-4.99210633538114,-24.0689789101645,5.7432478289061,-12.0991205601493,-37.9971119849696,-9.59206045754786,53.6418111603724,-23.3468606730948,-37.3660453277618,21.8269289069131
11.8836108361506,-4.84308945792306,-23.9901371211965,5.67540372488215,-11.7331881581602,-37.4639670532652,-9.46839323810834,53.1884027352408,-23.4090149313564,-37.1705368138053,21.706163395564
11.9779201448236,-4.69253508763801,-23.9096287415738,5.60628511489827,-11.3587894189113,-36.9278532685923,-9.34514751170581,52.7108173951673,-23.4743518553035,-36.9807667715753,21.5954890047164
12.0477916100535,-4.53999746838302,-23.8278665223414,5.53647640343798,-10.9765296326291,-36.3895512752582,-9.22233169460787,52.2087778973437,-23.5425961542239,-36.7970951675927,21.495016406155
12.0942654123344,-4.38500280924384,-23.7452814010031,5.46656505557458,-10.5870486005749,-35.8497814174255,-9.09992746472242,51.6820981547918,-23.6134660186465,-36.6197799608693,21.4047819407216
12.1185522233607,-4.22705862606794,-23.662316643699,5.39713141373487,-10.1910176583451,-35.3092033588274,-8.97789456125714,51.1306895688178,-23.6866727490695,-36.4489729155364,21.3247420866384
12.1220040734963,-4.06566313902185,-23.5794217746915,5.32873873722708,-9.78913609711015,-34.7684176092405,-8.85617513557188,50.5545669654599,-23.7619201412179,-36.2847193108091,21.254770958338
12.1060830977352,-3.90031452826197,-23.4970463988158,5.26192367367185,-9.38212702989861,-34.2279688762283,-8.73469766229883,49.9538540182956,-23.8389036251434,-36.1269616159806,21.1946610010498
12.0723288222864,-3.73051988268477,-23.4156340242235,5.19718735496086,-8.97073275471598,-33.6883510921195,-8.61338046430148,49.328788024122,-23.9173091621107,-35.9755469993579,21.1441268406116
12.0223247276766,-3.55580371203974,-23.3356159933621,5.13498728904139,-8.55570967072999,-33.1500138997561,-8.4921349275809,48.6797238914692,-23.996811920307,-35.8302383537175,21.1028120544054
11.9576648875981,-3.37571592688466,-23.2574056270435,5.07573019514706,-8.13782280976356,-32.6133703221082,-8.37086848734028,48.0071372044907,-24.0770747719523,-35.6907283587531,21.0702984650219
11.8799215300519,-3.18983922071412,-23.1813926791369,5.01976590584735,-7.71784005347126,-32.0788052944453,-8.24948745904226,47.3116262357682,-24.1577466759462,-35.5566559625894,21.0461174274986
11.7906143921827,-2.99779581234681,-23.1079381887759,4.9673824343654,-7.29652611678843,-31.5466847065365,-8.12789977192474,46.5939128003348,-24.2384610289815,-35.4276245491403,21.0297624860608
11.6911827357636,-2.79925352419002,-23.0373698049893,4.91880227922823,-6.87463639031639,-31.0173645880222,-8.00601764017288,45.8548418686121,-24.3188340830814,-35.3032209779524,21.0207027284474
11.5829608502444,-2.59393118395311,-22.9699776486708,4.87418001121269,-6.4529107479393,-30.4912000708814,-7.88376018226988,45.0953798858669,-24.3984635393401,-35.183034657853,21.0183961789292
11.4671577898536,-2.38160334442439,-22.9060107716365,4.83360116184841,-6.03206744034094,-29.968553774636,-7.761055974599,44.3166117779388,-24.476927437281,-35.0666758533004,21.0223026442196
11.3448419682962,-2.16210431885784,-22.8456742716971,4.79708240933595,-5.61279720818941,-29.4498032797531,-7.63784550177929,43.5197366553154,-24.5537834676059,-34.9537925108073,21.031895539487
11.216931070638,-1.93533152961297,-22.789127121892,4.76457303475222,-5.19575775753385,-28.9353473831057,-7.5140834427918,42.7060622578308,-24.6285688435738,-34.8440850119418,21.0466723491462
11.084187542776,-1.70124816664865,-22.7364807665459,4.73595759592497,-4.7815687412794,-28.4256108680271,-7.38974070915886,41.8769982075041,-24.7008008720345,-34.7373183950363,21.0661635032493
10.9472196945601,-1.45988515178268,-22.6877985254752,4.71105973797388,-4.37080738237535,-27.9210475703156,-7.26480613328604,41.0340481548226,-24.7699783676554,-34.6333317336553,21.0899395692606
10.8064882168999,-1.21134240484884,-22.6430958334041,4.68964703136953,-3.96400485584804,-27.4221415782876,-7.13928769787398,40.1788009128334,-24.8355840527207,-34.5320445118396,21.1176167666992
10.6623176821271,-0.955789408416869,-22.6023413276229,4.67143670437805,-3.56164351855882,-26.9294064684609,-7.01321320502702,39.3129206743578,-24.8970880810653,-34.4334599880542,21.1488609036678
10.5149123870171,-0.693465067324433,-22.5654587835947,4.65610211904664,-3.1641550397576,-26.4433825491809,-6.88663030539163,38.4381364029636,-24.9539528176037,-34.3376656821222,21.1833899058595
10.3643757241352,-0.424676857156082,-22.5323298835412,4.64327982893354,-2.77191944655889,-25.9646321608921,-6.75960583927007,37.5562304813417,-25.0056389896979,-34.2448312372605,21.2209751558172
10.2107321410295,-0.149799253050018,-22.5027977845326,4.63257705258474,-2.38526506149189,-25.4937331579693,-6.63222447845686,36.6690266936368,-25.0516132963172,-34.1552039835722,21.2614418760491
10.0539506749059,0.130728570485997,-22.4766714286804,4.62357939887304,-2.00446927694987,-25.0312707666703,-6.50458669526722,35.7783776113718,-25.091357510977,-34.0691025455348,21.3046687682816
9.89396903408862,0.416405774409969,-22.4537305088211,4.61585868749744,-1.62976008299927,-24.5778280735532,-6.37680612113785,34.8861514451974,-25.1243790440698,-33.9869087962144,21.3505870651826
9.7307172329927,0.706673622186738,-22.4337309714305,4.60898071816914,-1.2613182387342,-24.1339754480308,-6.24900639231182,33.9942184168771,-25.150222840888,-33.9090583856869,21.3991790723854
9.56413986662077,1.00091996577416,-22.4164109091866,4.60251285332163,-0.89927995299518,-23.7002592418495,-6.12131761889014,33.1044366995132,-25.1684843866655,-33.8360299885297,21.4504761940205
9.39421622324316,1.29848442570332,-22.4014966729545,4.59603129037969,-0.543739921090689,-23.277190137083,-5.99387265831604,32.2186379724939,-25.1788234757324,-33.7683333520399,21.5045563619306
9.22097756844229,1.59866422921907,-22.3887090191856,4.58912790969002,-0.194754555828934,-22.8652315310766,-5.86680342003606,31.3386126446371,-25.1809782877316,-33.7064962048329,21.5615407443442
9.04452107918515,1.90072066013335,-22.3777691041382,4.58141659195765,0.147654742365015,-22.4647883491829,-5.74023746374437,30.4660948162724,-25.1747792106666,-33.6510501105808,21.6215896010804
8.8650200538576,2.20388606442122,-22.3684041403947,4.57253890509315,0.483498410964963,-22.0761966637519,-5.61429516967011,29.6027470777374,-25.1601617700328,-33.6025154063952,21.6848971688764
8.68273016657268,2.50737134607039,-22.3603525428317,4.56216906847236,0.812815750978408,-21.6997144732564,-5.48908775149437,28.7501452755448,-25.1371779768033,-33.5613854216164,21.7516854834354
8.49799166764206,2.81037387833084,-22.3533684099758,4.55001811600457,1.13567222218926,-21.3355139607305,-5.36471634997152,27.9097634148318,-25.1060054028844,-33.5281102129766,21.8221970657055
8.31122755559414,3.1120857476615,-22.347225213619,4.53583719722811,1.45215704156573,-20.983675504986,-5.24127238976266,27.082958903684,-25.0669533326759,-33.5030800793581,21.8966864274617
8.1229378604301,3.41170224260433,-22.3417186058934,4.51941997438201,1.76238108431284,-20.6441836605978,-5.11883930776891,26.2709583787852,-25.0204654194136,-33.4866091529472,21.9754104019156
7.93369028530328,3.70843049648047,-22.3366682964216,4.50060409009517,2.06647505778073,-20.3169252573129,-4.99749567297382,25.4748443823907,-24.9671183910843,-33.4789194211032,22.0586173878896
7.74410755750808,4.00149818828068,-22.331918996926,4.47927169430445,2.36458789667044,-20.0016897032962,-4.87731961809178,24.6955431889985,-24.9076165037739,-33.4801256114025,22.1465357045725
7.55485194230441,4.29016219838735,-22.3273404714868,4.45534903270783,2.65688531375476,-19.6981715137082,-4.7583943984257,23.9338141055532,-24.8427816302278,-33.4902214478454,22.2393613699095
7.36660747617182,4.5737171050435,-22.3228267646399,4.42880511669185,2.94354843101652,-19.4059750260038,-4.64081479685109,23.1902405869012,-24.7735390872879,-33.5090678363441,22.3372457219126
7.1800605788993,4.85150339511141,-22.3182947049783,4.39964951809116,3.22477240939732,-19.124621204306,-4.52469401898513,22.4652235116791,-24.7008995265589,-33.5363835538364,22.4402833890704
6.99587980283647,5.1229152501786,-22.3136817982533,4.36792935965054,3.50076499121436,-18.8535563770978,-4.4101706750842,21.7589769480499,-24.6259374158735,-33.5717389987205,22.5485011760326
6.81469556558607,5.38740775833295,-22.3089436325821,4.33372560130102,3.77174486995504,-18.5921626970499,-4.29741542567919,21.0715267027298,-24.5497668084488,-33.6145535118927,22.6618484529105
6.6370807789305,5.64450339500522,-22.304050921843,4.29714875130382,4.03793981131051,-18.339770061284,-4.18663687467652,20.4027118909514,-24.4735152231891,-33.6640966954718,22.7801896105685
6.46353331873935,5.89379761505768,-22.2989863135868,4.25833415721299,4.29958446944262,-18.095669186154,-4.07808632150958,19.7521896890834,-24.3982965414525,-33.7194940363097,22.9032990671629
6.29446126389281,6.13496340449899,-22.2937410856301,4.21743705158035,4.55691787133785,-17.8591254934454,-3.97206102533164,19.1194433368706,-24.3251838659996,-33.7797369817616,23.0308591889716
6.13017175429816,6.36775465489879,-22.2883118509192,4.17462753886926,4.81018057280656,-17.6293934360707,-3.86890568221157,18.503793348876,-24.2551832925005,-33.8436974229793,23.1624613359013
5.97086417092877,6.59200824641926,-22.2826973828605,4.130085709927,5.05961151541351,-17.4057308730427,-3.76901186667119,17.9044117847952,-24.1892095178405,-33.9101463338436,23.2976100782557
5.81662812425865,6.80764475473897,-22.2768956629184,4.0839970556453,5.30544463199473,-17.18741309853,-3.67281524260916,17.3203393259096,-24.1280641537615,-33.9777761151655,23.435730474483
5.66744646125587,7.01466773120956,-22.2709012391601,4.03654832300148,5.54790526073648,-16.9737461418051,-3.58079041318914,16.7505048177558,-24.0724175264709,-34.045226025933,23.5761781630092
5.5232031855135,7.21316154314548,-22.2647029691433,3.98792392004407,5.78720643541176,-16.7640789871961,-3.49344336484595,16.1937468724744,-24.0227946196332,-34.1111099593397,23.7182519124049
5.38369585921495,7.40328780124743,-22.2582822041145,3.93830293795473,6.02354512322424,-16.5578144159266,-3.41130157170414,15.6488370805584,-23.9795656606653,-34.1740457393289,23.8612081926556
5.24865175333951,7.58528044218525,-22.251611455251,3.88785682171617,6.25709848500286,-16.3544182404688,-3.33490195699583,15.1145043584859,-23.9429416650258,-34.232685059885,24.0042772696767
5.11774676696293,7.75943957402484,-22.2446535673803,3.83674768717727,6.48802023952606,-16.1534267785096,-3.26477704307987,14.5894599504278,-23.9129750503436,-34.2857431500681,24.146680278077
4.99062597428658,7.92612422854007,-22.2373614113954,3.78512725224936,6.71643722421665,-15.9544524880084,-3.2014397465313,14.0724226047147,-23.8895652231209,-34.3320272175789,24.287646689296
4.86692459451793,8.08574419603107,-22.2296780935751,3.73313632575498,6.94244625233639,-15.757187748512,-3.14536737944918,13.5621434580131,-23.8724688365906,-34.370462709423,24.4264315647288
4.74628821679404,8.23875114309016,-22.2215376679362,3.68090478148416,7.16611136716091,-15.5614068235224,-3.09698549671356,13.0574301816318,-23.8613142296857,-34.4001164450473,24.5623319727115
4.62839123882591,8.3856292294887,-22.2128663249969,3.62855193732927,7.38746158737399,-15.3669660775497,-3.05665227513382,12.5571699729229,-23.8556193943357,-34.4202157397392,24.6947019627666
4.51295267257794,8.52688544606347,-22.2035840155703,3.57618725676022,7.60648922897066,-15.1738025545195,-3.02464411646166,12.0603510077139,-23.8548126916822,-34.4301627551964,24.8229655380165
4.39974870611885,8.66303989221599,-22.1936064526942,3.52391128856527,7.82314887902348,-14.9819310518471,-3.00114312732363,11.5660820050607,-23.8582554551943,-34.4295434952668,24.9466271510799
4.28862165981063,8.7946162011999,-22.1828474218894,3.47181675946983,8.03735708428506,-14.791439843666,-2.98622704854669,11.0736095927566,-23.8652655829299,-34.4181310988353,25.0652793645647
4.1794852122076,8.92213230545703,-22.1712213220492,3.41998973451587,8.24899280022242,-14.6024852166103,-2.97986209479886,10.5823332026074,-23.875141229664,-34.3958833438746,25.1786074502668
4.07232597694809,9.04609171485429,-22.1586458565052,3.36851076400042,8.45789862273016,-14.4152849855239,-2.98189903579729,10.0918172704238,-23.8871837562859,-34.3629345406129,25.2863908386874
3.96720167381213,9.16697545975853,-22.1450447948164,3.31745594419373,8.66388279821645,-14.2301111588686,-2.99207271271369,9.60180056521711,-23.9007191724884,-34.3195822402715,25.3885014662831
3.86423624902526,9.28523482892914,-22.1303507287993,3.26689783174333,8.86672198418185,-14.0472819271636,-3.01000504402075,9.11220251905275,-23.915117413463,-34.2662694086288,25.4848991981874
