Finger Velocity,Scap_X,Scap_Y,Scap_Z,Shoulder horiz abd-adduction,Shoulder flexion-extension,Shoulder internal-external rotation,elbow flexion-extension,forearm pronation-supination,wrist flexion-extension,wrist radial-ulnar deviation
2.37855319840271,-5.80472113887403,-27.7755332474677,2.35322884978272,-12.3998091343697,-41.4439010394458,-1.25807772977315,54.8288886780384,-23.6358565637838,-35.1841233018983,20.4267814930114
3.1401267222657,-5.8143453352185,-27.7875025800419,2.41398104119627,-12.7332507590307,-41.1993028853829,-1.47613217442715,55.2097763541703,-23.3365209279498,-33.459919162438,18.6946144804778
3.96829905053623,-5.82978238869535,-27.7916365904219,2.46896576592597,-13.0807380756466,-40.9359857222152,-1.69531835499083,55.6340052544348,-23.011780734174,-31.6564831945044,16.9049466174498
4.85964763641736,-5.85119734067455,-27.7874469919782,2.51751960549148,-13.4406802448935,-40.6534550536325,-1.91425152026414,56.1029629745205,-22.6609511262575,-29.7907833442501,15.0761359040136
5.81010065369716,-5.87868925016478,-27.774521878427,2.55903356175524,-13.811317970564,-40.3512398866025,-2.13153794632191,56.6177411016179,-22.283403441652,-27.881409155175,13.2278877881113
6.81487032189201,-5.91229006396583,-27.7525285199592,2.59295935445375,-14.1907406779508,-40.0288929575125,-2.34579118053678,57.1791104848944,-21.8785833678168,-25.9478635017808,11.380548628852
7.86845816715767,-5.95196471843015,-27.7212143399684,2.61881464765728,-14.5769062815106,-39.6859912292652,-2.55564775508911,57.7874990243462,-21.4460338436232,-24.0097859406447,9.554340614535
8.96469471447975,-5.99761234469436,-27.6804061993251,2.63618723828718,-14.9676634752303,-39.3221365832129,-2.75978207771883,58.4429720098708,-20.985422208735,-22.0861772302096,7.76860608394176
10.0968003276291,-6.0490684161434,-27.630008164555,2.64473825563075,-15.3607764110343,-38.93695662668,-2.95692022958388,59.1452150812198,-20.49657075504,-20.1946943486022,6.04112843785696
11.2574612820388,-6.10610765982237,-27.5699979661673,2.64420442458874,-15.7539515470074,-38.5301055557505,-3.14585244232394,59.8935199707716,-19.9794894999109,-18.3510737846985,4.38758488475629
12.4389176627971,-6.16844755158557,-27.5004223648404,2.63439944046839,-16.1448663544968,-38.101265047929,-3.32544408051088,60.6867733241664,-19.4344097030754,-16.5687209762594,2.82116614018906
13.6330605726064,-6.23575222554247,-27.4213916400037,2.6152144941042,-16.5311994774428,-37.6501452001159,-3.49464501283831,61.5234490490632,-18.8618164058843,-14.8584803311122,1.35237472928926
14.8315364403583,-6.30763664866227,-27.3330734023527,2.58661797758016,-16.910661846595,-37.17648556265,-3.65249731032082,62.4016047961475,-18.2624780980538,-13.2285782826157,-0.0110082501659137
16.025856307504,-6.38367093865035,-27.2356859124722,2.54865439564183,-17.2810281740945,-36.6800563424668,-3.79814126102068,63.3188833076027,-17.6374715247003,-11.6847150254163,-1.2638144145933
17.207507982111,-6.46338473546415,-27.1294910639737,2.5014425055405,-17.6401681954138,-36.160659857682,-3.93081973856024,64.2725194588192,-16.9881996498106,-10.2302706973065,-2.40327315970067
18.3680689518584,-6.54627157082458,-27.0147871640098,2.4451727062796,-17.986076986939,-35.6181323273365,-4.04988100471689,65.2593538529791,-16.3164009101139,-8.86658866676284,-3.42872851608381
19.4993179657646,-6.63179321075743,-26.8919016208064,2.38010369597828,-18.3169036684503,-35.0523460791752,-4.15478006055879,66.2758537897298,-15.624148148766,-7.59330080040058,-4.34132269906483
20.5933432433666,-6.71938396985877,-26.7611836301604,2.30655841374622,-18.6309778020903,-34.4632122576129,-4.24507868047008,67.3181423049019,-14.9138360307098,-6.40866509893372,-5.14367485536618
21.6426453550247,-6.80845501269153,-26.6229969411284,2.22491927996101,-18.9268328271253,-33.8506841114749,-4.32044426692384,68.3820357582998,-14.1881563119577,-5.30989296970297,-5.83957581238596
22.6402329394429,-6.89839866964547,-26.4777127734556,2.13562274545279,-19.2032259277538,-33.2147609316719,-4.38064765415831,69.463090127576,-13.4500610344321,-4.29345023643733,-6.43371212740149
23.579709583195,-6.98859280312623,-26.3257029524721,2.03915315667665,-19.4591538219801,-32.5554926890537,-4.42555997326095,70.5566557561416,-12.7027144895798,-3.35532197953763,-6.93142628903365
24.4553503791027,-7.07840526500201,-26.1673333183187,1.93603594349861,-19.6938640806003,-31.8729853928541,-4.45514867762589,71.6579398251703,-11.949435565994,-2.49123611276255,-7.33851493120674
25.2621669014931,-7.16719848679748,-26.0029574556,1.82683014177119,-19.9068617283211,-31.1674071531213,-4.46947282051627,72.7620753112097,-11.1936327951276,-1.69684417641518,-7.6610634378944
25.9959595815304,-7.2543342389817,-25.8329107807314,1.71212027527706,-20.0979110324275,-30.4389948870567,-4.46867767371087,73.8641946984222,-10.438734965936,-0.967860315653521,-7.90531317644807
26.65335672913,-7.33917858496392,-25.6575050211491,1.59250763985708,-20.267032536601,-29.6880615576527,-4.45298877518215,74.9595062882305,-9.68812053355267,-0.300161100244915,-8.07755651025602
27.2318397231673,-7.42110704112262,-25.477023122718,1.46860105558744,-20.4144955378005,-28.9150037741284,-4.42270549635411,76.0433706359164,-8.94504915549608,0.310149990547093,-8.18405441694187
27.7297541723004,-7.49950993875377,-25.2917146246738,1.34100718032147,-20.5408063227827,-28.1203095251168,-4.37819423068567,77.1113744803261,-8.2125985371046,0.866708775954003,-8.23097175149332
28.1463071282561,-7.5737979681241,-25.1017915409939,1.21032050862628,-20.646692570928,-27.3045657700097,-4.31988132720039,78.1593995406694,-7.49360937577596,1.3728821084058,-8.22432578255818
28.4815507055606,-7.64340786805529,-24.9074247821538,1.07711321141936,-20.733084390849,-26.4684655907182,-4.24824592266134,79.18368373582,-6.79064060852743,1.83177973517747,-8.16994445535338
28.736352720515,-7.70780820558144,-24.7087411440629,0.941925000414397,-20.8010924962819,-25.6128146049365,-4.16381286076608,80.1808727197315,-6.10593645163153,2.24628092769291,-8.07343175642067
28.912355202291,-7.76650516945588,-24.5058208857013,0.805253225749176,-20.8519840511425,-24.7385363541159,-4.06714592181896,81.1480600900525,-5.44140594312432,2.61907079204727,-7.9401384464419
29.0119218456365,-7.81904828007533,-24.2986959181444,0.667543433631738,-20.8871567303449,-23.8466763956271,-3.95884161282773,82.0828151754018,-4.79861493014407,2.95268163507572,-7.77513719677736
29.0380756638545,-7.86503589797835,-24.0873486380212,0.529180622645712,-20.9081115534273,-22.9384048458845,-3.83952377246054,82.9831978950365,-4.17878975096358,3.24953537359337,-7.58320176571935
28.99442825934,-7.9041203943455,-23.8717114563963,0.390481441897633,-20.9164250518401,-22.015017142085,-3.70983921812212,83.8477607669703,-3.58283129701526,3.51198370464425,-7.36879026546255
28.8851022547998,-7.93601283165849,-23.6516670932333,0.251687570457382,-20.9137213274807,-21.0779328198643,-3.57045460313251,84.6755386766758,-3.01133772904885,3.74234355369067,-7.13603280227847
28.7146485199646,-7.96048699378481,-23.4270497194946,0.112960504057619,-20.9016445484892,-20.1286921479811,-3.42205456800192,85.4660274784706,-2.46463387006537,3.94292612371337,-6.88872383446619
28.4879598855975,-7.97738260531312,-23.1976470272492,-0.025622048961134,-20.8818324059161,-19.1689505210383,-3.26534117271342,86.219152865937,-1.94280520041823,4.11605861464832,-6.63031951096971
28.2101830590816,-7.9866075918947,-22.9632032922898,-0.164067994130447,-20.8558910194102,-18.2004705820294,-3.10103449854376,86.9352312055408,-1.44573442180761,4.26409831447492,-6.36394006547497
27.8866304446058,-7.98813925616083,-22.7234234684905,-0.302470772854781,-20.8253717319811,-17.2251121177579,-2.92987421808868,87.6149241780037,-0.973138712116875,4.38943925458306,-6.09237709642336
27.5226935271779,-7.9820242743921,-22.4779783245736,-0.441007299835083,-20.7917501756047,-16.2448198331247,-2.75262185912935,88.2591891229049,-0.524606034496674,4.49451198261541,-5.81810532108475
27.1237594048599,-7.96837745370021,-22.2265106059718,-0.579933885998492,-20.7564079227407,-15.2616091618636,-2.57006343608805,88.8692269469912,-0.099629164834771,4.58177726752384,-5.54329820270961
26.6951319493766,-7.9473792262029,-21.9686421772287,-0.719580169928437,-20.7206169650942,-14.2775503132917,-2.38301209047499,89.446429352429,0.302363566889457,4.65371474211843,-5.26984674062097
26.241958943265,-7.9192718958786,-21.7039820710739,-0.8603411363901,-20.685527182959,-13.2947507912338,-2.19231036828367,89.9923269858325,0.681981494561876,4.71280761576624,-4.99938068197807
25.7691663836927,-7.88435469565176,-21.432135336326,-1.0026673572097,-20.6521568894531,-12.3153366568703,-1.99883177379451,90.5085399192822,1.0398491621196,4.76152464467084,-4.73329143842888
25.2814009607801,-7.84297775529886,-21.15271253882,-1.14705364389534,-20.6213864563937,-11.3414328431791,-1.80348128152422,90.9967316643652,1.37658830814326,4.8023005187996,-4.47275604043501
24.782981513808,-7.7955351224178,-20.8653397312089,-1.29402634972392,-20.5939549549914,-10.3751428619328,-1.60719455800614,91.4585676997555,1.69280419526175,4.83751571736225,-4.21876150946246
24.2778600447441,-7.74245701576836,-20.5696686723454,-1.44412960081487,-20.5704596779975,-9.41852827123893,-1.41093573230243,91.895679269045,1.98907604203963,4.86947672103293,-3.97212905855675
23.7695926287262,-7.68420151934176,-20.2653870478359,-1.59791077248229,-20.5513583532472,-8.47358829067769,-1.21569364648009,92.3096329826451,2.2659512129545,4.90039727809467,-3.73353754627441
23.2613203104058,-7.62124594417246,-19.9522284241888,-1.75590556006496,-20.536973813716,-7.54223996002576,-1.02247660352787,92.7019065389332,2.52394275436771,4.93238122637407,-3.5035456213496
22.7557598198753,-7.55407809290097,-19.6299816640336,-1.91862302077152,-20.5275008567986,-6.62629923249287,-0.832305704158677,93.0738706697568,2.76352982028161,4.96740718624878,-3.28261202356015
22.255203690381,-7.48318766120232,-19.2984995396992,-2.0865309801799,-20.5230150038581,-5.72746337258281,-0.646206928000958,93.4267772189347,2.98516050448563,5.00731527097579,-3.07111356395828
21.7615291216569,-7.40905800311697,-18.9577063024701,-2.26004219946043,-20.5234828566467,-4.84729499609842,-0.465202175033994,93.7617530835921,3.18925658160898,5.05379581941416,-2.86936040126383
21.2762147178742,-7.33215847540563,-18.6076039904067,-2.43950168618712,-20.5287737364278,-3.98720805237686,-0.290299540040566,94.0797995893151,3.37621965512446,5.10838005226627,-2.67760835790087
20.8003640482361,-7.25293755812822,-18.2482772883807,-2.6251755050415,-20.5386722828388,-3.14845601055619,-0.122483137937037,94.3817967323037,3.54643821217653,5.17243248620169,-2.49606816632765
20.334734840494,-7.17181692289772,-17.879896792361,-2.81724140710441,-20.5528916833646,-2.3321224711817,0.0372971801967081,94.6685116065607,3.70029509331228,5.2471448986345,-2.32491168513034
19.8797725302557,-7.08918658620741,-17.5027205764807,-3.01578154812364,-20.5710872038867,-1.539114377837,0.188135889466875,94.9406102450675,3.83817490512753,5.3335316058648,-2.16427525742804
19.4356468559603,-7.00540124342757,-17.1170940130838,-3.22077750648991,-20.5928697017897,-0.770157947997952,0.329181341207553,95.1986720458284,3.96047094389719,5.43242579546812,-2.01426049214488
19.0022902111115,-6.92077783064109,-16.7234478490065,-3.4321077413114,-20.6178188318504,-0.0257973774751751,0.459644574299159,95.4432059320294,4.06759126506324,5.54447664566266,-1.87493283011434
18.5794365382217,-6.83559430923737,-16.3222945938847,-3.64954755271916,-20.6454957036228,0.693603700018,0.578807237918942,95.6746674133326,4.15996362759246,5.67014697411615,-1.74631831384339
18.1666596658151,-6.75008961744438,-15.9142233271134,-3.87277152427206,-20.675454810297,1.38785809357569,0.686028552356585,95.8934757698013,4.23803915695232,5.80971118792184,-1.62839901577507
17.7634101409472,-6.66446469008505,-15.4998930762884,-4.10135834532724,-20.7072551087122,2.05694844577952,0.780751300309779,96.1000306624181,4.30229469410729,5.96325335937053,-1.52110759996043
17.3690497835698,-6.57888441729839,-15.0800249576373,-4.33479783488893,-20.7404701744716,2.70101836751538,0.862506890711834,96.2947275738816,4.35323391684484,6.13066533337452,-1.42432149920953
16.9828833738382,-6.4934803965801,-14.6553932951486,-4.5724999243313,-20.7746973780741,3.32036160056636,0.930919571888911,96.4779715910112,4.39138742004034,6.3116448803685,-1.33785718275458
16.6041870679808,-6.40835433006555,-14.2268159476432,-4.81380531074585,-20.8095660285994,3.91540952296452,0.985709894722171,96.6501891482138,4.41731201201643,6.50569403355849,-1.26146496550084
16.2322333130308,-6.32358192714069,-13.7951440719414,-5.0579974686272,-20.8447444183517,4.48671732527167,1.02669754130857,96.8118374545528,4.43158952041631,6.71211787685591,-1.19482476907983
15.8663121880904,-6.23921718393294,-13.3612515410803,-5.30431570210225,-20.8799456877813,5.03494918666957,1.05380363936372,96.963411422405,4.43482540577632,6.93002416477738,-1.13754318953343
15.505749234669,-6.15529691844651,-12.9260242279657,-5.55196892340052,-20.9149324281258,5.56086277712555,1.06705267430039,97.1054480037463,4.42764746094135,7.15832424623494,-1.08915215815292
15.1499199479879,-6.07184543948242,-12.4903493617919,-5.8001498448326,-20.9495199567721,6.06529341181462,1.06657408528588,97.2385279218514,4.41070483554828,7.39573582084136,-1.04910940071841
14.7982611838473,-5.9888792200353,-12.0551051656012,-6.04804926552357,-20.983578235442,6.54913818521004,1.05260358481419,97.363274861981,4.38466756929407,7.6407880675962,-1.01680080633006
14.4502797920047,-5.90641143673544,-11.6211509835399,-6.29487012352409,-21.0170324438368,7.01334040851876,1.02548417368525,97.4803522538139,4.35022674650408,7.89182963983706,-0.991544712762427
14.1055588183715,-5.82445623410775,-11.189318100449,-6.53984097827495,-21.0498622588984,7.45887465900914,0.985666742859158,97.5904578394944,4.30809530316149,8.14703991504489,-0.972598006671229
13.7637616267515,-5.74303258224168,-10.7604014407555,-6.78222859751766,-21.082099915091,7.88673272058606,0.933710075374572,97.6943162723331,4.25900943662969,8.40444373748804,-0.959163832037849
13.4246342787953,-5.66216761913247,-10.3351523071822,-7.02134935005933,-21.1138271340256,8.29791065273521,0.870279999147093,97.7926700317317,4.20373049539482,8.66192971692239,-0.950400605952947
13.0880064811451,-5.58189939913845,-9.91427228413276,-7.25657914731018,-21.145171015649,8.69339717228687,0.796147401593632,97.8862689709362,4.14304716106768,8.91727196292644,-0.945431962622804
12.7537913644312,-5.50227899975543,-9.49840838838932,-7.48736172545913,-21.176298982755,9.07416347272158,0.712184801996183,97.9758588375299,4.0777776759126,9.16815495351855,-0.943357192015959
12.4219843031818,-5.42337196494457,-9.08814950420246,-7.71321511180448,-21.2074128724864,9.44115454415277,0.619361189811109,98.062169124143,4.00877182101276,9.41220107495199,-0.943261719585206
12.0926609224222,-5.34525908223684,-8.68402409547615,-7.93373617094604,-21.2387422799214,9.7952820006323,0.518734878253535,98.1459006210802,3.93691232283401,9.64700024417756,-0.944227195294034
11.7659743697004,-5.26803650363015,-8.2864991480168,-8.14860317853695,-21.2705372820284,10.1374183746058,0.4114441904137,98.2277130542715,3.86311536785298,9.87014094562452,-0.94534082215759
11.4421518647054,-5.19181523028012,-7.89598025841751,-8.3575764230398,-21.3030606992555,10.4683927995106,0.298695885894137,98.3082131978544,3.78832993786686,10.0792419821463,-0.945703648453538
11.1214904770244,-5.11671999193186,-7.51281274868749,-8.56049689130796,-21.336580076295,10.7889879651699,0.181751345744303,98.3879438457707,3.71353573649556,10.2719842539689,-0.944437663411262
10.804352030541,-5.04288756588794,-7.13728364554339,-8.757283151233,-21.3713595749917,11.0999381939038,0.0619106567994764,98.467374008731,3.63973954927076,10.4461419287837,-0.940691662383639
10.4911569951232,-4.97046459621647,-6.76962432587313,-8.94792659926165,-21.4076519693308,11.4019284525898,-0.0595051372643334,98.5468906723331,3.5679699558764,10.599612433689,-0.933645971104373
10.1823772070013,-4.89960498863289,-6.41001360796094,-9.13248528578906,-21.4456909196778,11.6955940985892,-0.18117323575203,98.626792409646,3.49927038829588,10.7304447717948,-0.922516224272308
9.87852726256395,-4.83046696636777,-6.05858107409481,-9.31107656364525,-21.4856836886524,11.9815211661777,-0.301789255585219,98.7072850870278,3.43469060057053,10.8368657373858,-0.906556466470897
9.58015445943684,-4.76320987587782,-5.71541044605598,-9.48386882505674,-21.5278044501404,12.2602470355697,-0.420087834637931,98.7884798356278,3.37527668387701,10.9173036697854,-0.885061875300145
9.2878272157628,-4.69799082984443,-5.38054288969732,-9.65107260410254,-21.5721883370232,12.5322613779859,-0.534863069319535,98.8703933847845,3.32205982505608,10.9704094411801,-0.857371400623476
9.00212198413185,-4.63496127135357,-5.05398018203712,-9.81293132662033,-21.6189263689814,12.7980073228937,-0.644988167133529,98.952950771242,3.27604406759135,10.99507441396,-0.822870579478093
8.72360878903225,-4.57426353967181,-4.73568772143343,-9.96971198561627,-21.6680613940927,13.0578828372527,-0.749433700177795,99.0359903550257,3.23819338936257,10.9904451322844,-0.780994730843724
8.45283565167256,-4.51602751481754,-4.42559739418426,-10.1216960048655,-21.7195851624155,13.3122423370616,-0.847283884661965,99.1192709937424,3.2094184564641,10.9559345379338,-0.731232662993538
8.19031231584388,-4.46036741404467,-4.12361033196964,-10.2691705281656,-21.7734366237805,13.5613985676793,-0.937750380513176,99.2024811552647,3.19056344046572,10.8912295261549,-0.673130946280946
7.93649384159523,-4.40737880818073,-3.82959960747535,-10.4124203411838,-21.8295015051833,13.8056247914038,-1.02018319682797,99.28524968586,3.18239329287179,10.7962946818813,-0.606298724702834
7.69176477444046,-4.35713592068784,-3.54341292054945,-10.551720600212,-21.8876131771305,14.0451573094831,-1.09407839724869,99.3671578977364,3.18558185469923,10.6713720582424,-0.53041296346632
7.45642470792373,-4.30968926828787,-3.26487532311011,-10.6873305086054,-21.9475547678786,14.280198323175,-1.15908241684244,99.4477525986439,3.20070114453813,10.5169768816593,-0.445223955675921
7.23067611634545,-4.26506369865145,-2.99379201829725,-10.8194880476361,-22.0090624376282,14.5109191089016,-1.21499291992473,99.5265596597445,3.22821212113439,10.3338891027422,-0.35056084068759
7.01461532308233,-4.22325687664768,-2.72995125066061,-10.9484058335476,-22.0718296886966,14.737463452233,-1.26175624166337,99.6030977083766,3.26845716224639,10.123140770524,-0.246336826464536
6.80822737371532,-4.18423826465123,-2.47312728271699,-11.0742681359917,-22.1355125649651,14.9599512600538,-1.29946156490245,99.6768915386696,3.32165444314645,9.88599928922534,-0.132553768670431
6.61138539625917,-4.14794863456411,-2.22308343168634,-11.1972290552392,-22.1997355812125,15.1784822523667,-1.32833208637483,99.747484852844,3.38789433568761,9.62394671129251,-0.00930575187278161
6.42385475932805,-4.11430014117467,-1.97957512088684,-11.3174118179007,-22.2640982144759,15.3931396250941,-1.3487135201696,99.8144519772604,3.46713788162129,9.33865531722312,0.123218649617715
6.24530200288349,-4.0831769788707,-1.74235288563987,-11.4349091141656,-22.3281817822503,15.6039935735634,-1.36106036829647,99.8774082382699,3.55921732272214,9.03195983105825,0.264735684894452
6.07530814772465,-4.05443663462575,-1.51116526565894,-11.5497843649343,-22.3915565281412,15.8111045732736,-1.36592045536576,99.9360187321561,3.66383860011389,8.70582673242931,0.414867472262033
5.91338563015164,-4.02791173697229,-1.2857615149131,-11.662073778192,-22.4537887387299,16.0145263275544,-1.36391827096721,99.9900052792891,3.78058567435995,8.36232126404495,0.573144827037246
5.75899780051319,-4.0034124827204,-1.06589406444849,-11.7717890351277,-22.5144477283229,16.2143083067401,-1.35573768344923,100.039151413729,3.90892647334592,8.00357288992133,0.739011808382501
