Finger Velocity,Scap_X,Scap_Y,Scap_Z,Shoulder horiz abd-adduction,Shoulder flexion-extension,Shoulder internal-external rotation,elbow flexion-extension,forearm pronation-supination,wrist flexion-extension,wrist radial-ulnar deviation
0.921792715528472,-13.2637268129608,-18.7233889404866,3.3528197346874,0.114019906999409,-50.1845708979532,-1.12626765017384,51.3988318771307,-16.4344256165194,-32.8567711774032,16.5238372857693
1.02226524389596,-13.2639297223815,-18.7133861957845,3.36888263661122,0.0473726351269654,-50.1699568952852,-1.2026196041959,51.422191617642,-16.3454700467653,-32.5878820126504,16.3201741230587
1.12988723420219,-13.2658144817657,-18.7023887186122,3.38415134342904,-0.0199798345912694,-50.1587459136305,-1.27864004258592,51.4500469365962,-16.2516530400914,-32.3051659820699,16.1070329760057
1.24457566094629,-13.2693693630202,-18.6904468350656,3.39857710203496,-0.0878755512430512,-50.1511730505899,-1.35378682858002,51.4827413433723,-16.1525718036973,-32.0092819542367,15.8847130443102
1.36618012459474,-13.2745709740787,-18.6776222806904,3.4121246777116,-0.156170357535167,-50.1474305568574,-1.42750237671879,51.5206010441766,-16.0478300770574,-31.7010712085807,15.6535965759395
1.49448300604183,-13.2813865943911,-18.6639867284246,3.42477147799743,-0.224739901322224,-50.1476626223513,-1.49921936485537,51.5639283366999,-15.9370464778033,-31.3815645105262,15.4141535690669
1.62920003175178,-13.2897765922506,-18.6496201614271,3.43650623459412,-0.29348109150627,-50.1519605208575,-1.56836678801814,51.6129946073057,-15.8198625068594,-31.051983670404,15.1669430985964
1.76998128028696,-13.2996968185908,-18.6346091237929,3.44732730288477,-0.362313044183359,-50.1603581464018,-1.63437634146044,51.6680329903944,-15.6959498906155,-30.7137372687904,14.9126111593086
1.91641265990239,-13.3111008737543,-18.6190448766711,3.457240647069,-0.431177577946745,-50.1728279759922,-1.69668910962395,51.7292307627383,-15.5650169599012,-30.3684104506636,14.6518851026827
2.06801788175243,-13.3239421494177,-18.603021483834,3.46625758619879,-0.500039325014475,-50.1892774950741,-1.75476252126486,51.7967215593019,-15.426813808614,-30.0177489300109,14.3855649296771
2.22426094606795,-13.3381755584671,-18.5866338481951,3.47439238145183,-0.568885526705955,-50.2095461265719,-1.80807750909359,51.870577513885,-15.2811360359369,-29.6636375949812,14.1145118755602
2.3845491507209,-13.3537588810708,-18.5699757186979,3.48165974732366,-0.637725577702731,-50.233402712613,-1.85614578508936,51.9508014494582,-15.1278269498444,-29.3080743458927,13.839634873807
2.54823662366897,-13.3706536736692,-18.5531376857,3.48807236937142,-0.706590373661853,-50.2605436085753,-1.89851710912053,52.0373192683789,-14.966778189606,-28.9531400221589,13.5618756053805
2.71462837328068,-13.3888257068038,-18.5362051828591,3.49363850894334,-0.775531501194342,-50.2905914596246,-1.9347863892727,52.1299727189966,-14.7979288027568,-28.6009654739425,13.2821929236255
2.88298484367362,-13.4082449162347,-18.5192565148491,3.49835977087915,-0.844620289039178,-50.3230947386092,-1.96460041308492,52.2285127396835,-14.6212628773184,-28.2536970019821,13.0015474911522
3.05252695600856,-13.4288848691728,-18.5023609332691,3.50222910363535,-0.913946717153127,-50.3575281298293,-1.98766397896549,52.3325936019967,-14.4368058753735,-27.9134614984526,12.7208874628519
3.22244161114022,-13.4507217641561,-18.4855767878619,3.50522909325745,-0.983618159287026,-50.393293845228,-2.00374518476968,52.4417680892705,-14.2446198389563,-27.582332624969,12.4411359726725
3.39188762405514,-13.4737330001846,-18.468949785535,3.50733060376379,-1.05375791662801,-50.4297239580941,-2.01267964082174,52.5554839524462,-14.0447976503825,-27.2622992173909,12.1631810040812
3.56000205602794,-13.497895368883,-18.4525113935173,3.50849180767432,-1.12450348772848,-50.4660838347386,-2.01437340853708,52.6730818781996,-13.8374565370841,-26.9552368218324,11.8878679560637
3.72590690629135,-13.5231829420496,-18.4362774237131,3.50865764184007,-1.1960045153025,-50.5015767360995,-2.0088045182255,52.7937951831479,-13.6227310257579,-26.662882921964,11.6159949220662
3.88871612113678,-13.5495647441376,-18.420246833588,3.50775971347192,-1.2684203524893,-50.5353496466366,-1.99602297824317,52.9167514116349,-13.4007655781331,-26.3868161023973,11.34831045037
4.0475428746504,-13.5770023125326,-18.4044007768202,3.5057166667052,-1.34191719699355,-50.5665003644444,-1.97614923861582,53.0409759647746,-13.1717071804578,-26.1284391384348,11.0855133793467
4.20150707167229,-13.6054472559325,-18.388701935737,3.50243500212248,-1.41666475180985,-50.5940858526664,-1.94937111096618,53.1653978280472,-12.9356982043177,-25.8889657980727,10.8282542345014
4.34974302000114,-13.6348389220392,-18.3730941670425,3.49781032530954,-1.49283239073655,-50.6171318084568,-1.91593917964257,53.2888573972073,-12.6928698966183,-25.6694109894015,10.577137634366
4.49140721534217,-13.6651022807209,-18.3575024920956,3.49172898977269,-1.57058483847479,-50.6346433541665,-1.87616077506258,53.4101163313316,-12.4433368786413,-25.4705838167018,10.3327251861713
4.62568617903744,-13.6961461187706,-18.3418334626916,3.48407009399011,-1.65007741657579,-50.6456167004794,-1.830392622869,53.5278692922801,-12.1871930268842,-25.293083157548,10.0955384586942
4.75180428528611,-13.7278616283181,-18.3259759320248,3.4747077887515,-1.7314509529276,-50.6490515786375,-1.77903233085773,53.6407573673758,-11.9245090660734,-25.1372955378237,9.86606177702263
4.86903151145458,-13.7601214537464,-18.3098022572321,3.46351384682411,-1.81482649922341,-50.6439641939229,-1.72250892832249,53.747382920614,-11.6553321289991,-25.0033952889919,9.64474474582463
4.97669104231609,-13.7927792426275,-18.2931699544056,3.45036044222271,-1.90030004377955,-50.6294004183047,-1.66127272683381,53.846325577413,-11.3796874379402,-24.8913471131444,9.43200452048769
5.07416665679301,-13.825669725723,-18.2759238194881,3.43512308175711,-1.98793744170829,-50.6044489177078,-1.59578482197934,53.9361590174625,-11.0975821519894,-24.8009111950966,9.22822788648324
5.16090982415378,-13.858609330387,-18.2578985190585,3.41768362700785,-2.07776980583571,-50.568253899034,-1.52650659451635,54.0154682300184,-10.8090113155224,-24.7316509134534,9.03377319866839
5.23644643578402,-13.8913973116222,-18.2389216435514,3.3979333394312,-2.16978960517882,-50.520027163789,-1.45388958934457,54.0828668777631,-10.5139657430442,-24.6829430773037,8.84897220913048
5.30038309872423,-13.9238173662929,-18.2188172020627,3.3757758743898,-2.26394770062133,-50.4590591683609,-1.37836614686061,54.1370144191054,-10.2124415908191,-24.653990491848,8.67413179050542
5.35241291820972,-13.9556396788539,-18.1974095230833,3.35113014293975,-2.36015151183513,-50.3847288144819,-1.30034113352552,54.1766326521977,-9.90445130166553,-24.6438365506306,8.50953554401706
5.39232069845478,-13.9866233316618,-18.1745275097482,3.32393295645368,-2.45826446271602,-50.2965117262078,-1.22018507295383,54.2005213647398,-9.59003556700419,-24.6513814724946,8.35544527268761
5.41998749378696,-14.0165190003757,-18.1500091818348,3.29414137128112,-2.55810680138757,-50.1939868114381,-1.13822892367153,54.2075728013516,-9.26927592411055,-24.675399749383,8.21210230543342
5.43539444572884,-14.0450718466515,-18.1237064200971,3.26173465819705,-2.65945783521555,-50.0768409564083,-1.05476068810313,54.196784695386,-8.94230758997117,-24.7145583548704,8.07972867945229
5.43862584536951,-14.072024518436,-18.0954898112879,3.22671583227789,-2.76205955770106,-49.9448717607707,-0.970023968271313,54.1672716548821,-8.60933212373262,-24.7674353092813,7.95852822887768
5.42987136382562,-14.0971201745894,-18.0652534731429,3.18911269266449,-2.86562157445384,-49.7979882886204,-0.884218509354786,54.1182747425967,-8.27062950789811,-24.8325383139806,7.84868768143735
5.40942739604204,-14.1201054649483,-18.0329197174417,3.1489783398691,-2.96982716859003,-49.6362098844896,-0.797502699604284,54.0491691454691,-7.92656924392923,-24.9083233050246,7.75037790740474
5.37769746372852,-14.1407334154366,-17.9984433891106,3.10639116099738,-3.07434028941015,-49.4596631769029,-0.70999792846491,53.9594698845589,-7.57762007014767,-24.9932128601522,7.66375546767275
5.33519162080827,-14.158766184732,-17.9618157057253,3.0614542966733,-3.17881320162756,-49.2685774581007,-0.621794639974913,53.8488355670537,-7.22435793084922,-25.085614395878,7.58896456230881
5.28252479819183,-14.1739776699917,-17.9230674193586,3.01429462135101,-3.28289449103421,-49.063278681519,-0.532959848316637,53.7170702254202,-6.86747185916165,-25.1839380430897,7.5261394014746
5.22041401278718,-14.1861559439765,-17.8822711328238,2.96506127793386,-3.38623708661254,-48.8441823559518,-0.443545807645601,53.5641233268207,-6.50776748150643,-25.2866140265467,7.47540692576924
5.14967434735429,-14.1951055080923,-17.8395426239535,2.9139238106236,-3.48850593698663,-48.611785634704,-0.353599460439436,53.3900880690735,-6.14616789905516,-25.3921093099798,7.4368897073101
5.07121358245361,-14.2006493491987,-17.7950410633809,2.86106994137254,-3.58938498095978,-48.366658896184,-0.263172240568147,53.1951981044938,-5.78371174080843,-25.4989432112958,7.41070878000769
4.98602532945713,-14.2026307934264,-17.7489680518527,2.80670303858365,-3.68858308305006,-48.1094370885407,-0.172329786094926,52.9798228467136,-5.42154821407027,-25.60570166021,7.39698609224243
4.89518047587754,-14.2009151559599,-17.7015654489172,2.75103933287656,-3.78583866307837,-47.8408110711755,-0.0811611225496561,52.7444615196512,-5.06092901357016,-25.7110497903913,7.39584625641187
4.79981671470218,-14.195391189706,-17.6531120107713,2.69430494246109,-3.88092282545969,-47.5615191408211,0.0102130949269395,52.4897361078192,-4.70319700522738,-25.8137426506953,7.40741728567037
4.70112589453845,-14.185972336841,-17.6039188974097,2.63673277732838,-3.97364087918783,-47.2723388875849,0.101633648928494,52.2163833672879,-4.34977168216468,-25.912633977892,7.43183004880716
4.60033890758148,-14.1725977854679,-17.5543241474063,2.57855939546227,-4.06383222693816,-46.9740794891574,0.192897450118611,51.9252460560458,-4.00213149674462,-26.0066831468707,7.46921622739074
4.49870784255591,-14.1552333302513,-17.5046862541051,2.52002188555183,-4.15136868758859,-46.6675745174915,0.283754099756344,51.6172635373231,-3.66179329428987,-26.094960534562,7.51970461661623
4.39748518897937,-14.1338720323336,-17.4553770112975,2.46135484997363,-4.23615139821443,-46.3536752982553,0.373904503023621,51.2934618972668,-3.3302892000132,-26.1766515629169,7.58341567549317
4.29790000902102,-14.1085346704082,-17.4067738299402,2.40278755974172,-4.31810651556039,-46.0332448267449,0.463001638916171,50.9549437006196,-3.00914142809217,-26.2510596485955,7.6604543167167
4.2011312140592,-14.0792699707877,-17.3592517577277,2.34454134945622,-4.39717999668236,-45.7071522060908,0.550653519729374,50.6028774881149,-2.69983558191948,-26.3176082417344,7.75090103945552
4.10827840646823,-14.0461545992459,-17.3131754550897,2.28682731338163,-4.47333177665861,-45.3762675410255,0.636428300228133,50.2384870991663,-2.40379309667684,-26.3758421028753,7.85480163496872
4.02033116682035,-14.0092928919434,-17.2688913892051,2.22984435193364,-4.54652967503268,-45.0414572013732,0.71986142144575,49.8630408826348,-2.12234354406547,-26.4254278922928,7.97215581256418
3.93813814797812,-13.9688162983623,-17.2267204999807,2.17377760129097,-4.61674335471873,-44.7035793678755,0.800464595911792,49.4778408357594,-1.85669757480108,-26.466153980007,8.10290519718204
3.86237781107222,-13.9248825075323,-17.1869515699845,2.11879725984746,-4.68393863239609,-44.3634797861132,0.877736363811592,49.0842116876075,-1.60792131040823,-26.4979291771067,8.24692124960049
3.79353300267722,-13.8776742312452,-17.1498354964597,2.0650578063633,-4.74807240214324,-44.021987675106,0.951173882136056,48.6834899233073,-1.37691300315704,-26.5207799571441,8.40399375474834
3.73187171132619,-13.8273976248387,-17.1155806206377,2.01269758833503,-4.80908838897245,-43.6799117593683,1.02028555987799,48.2770127354841,-1.16438275626005,-26.5348457493775,8.57382059366974
3.67743615565098,-13.7742803362885,-17.0843492217984,1.96183874772211,-4.8669139021838,-43.338036413456,1.0846041233812,47.8661068938726,-0.970836032880844,-26.5403720170955,8.75599953903912
3.63004180284653,-13.718569185409,-17.0562552361515,1.91258744601382,-4.92145771362285,-42.9971179248783,1.14369968277579,47.4520775417958,-0.796561579728382,-26.5377010200083,8.95002278660029
3.58928703848819,-13.6605274853094,-17.0313632182851,1.86503434991983,-4.97260914027659,-42.6578808932176,1.19719237009577,47.0361969545241,-0.641624248569883,-26.5272603612405,9.15527486198207
3.55457314218951,-13.600432027517,-17.0096885279715,1.81925533870362,-5.02023836025993,-42.3210147897164,1.24476413338397,46.6196933272935,-0.505863021354686,-26.509549620253,9.37103442292007
3.52513316535359,-13.5385697601773,-16.9911986967567,1.7753123905785,-5.06419793887088,-41.9871707049045,1.28616929996749,46.2037397031747,-0.388894339447425,-26.4851255486956,9.59648029711757
3.50006746010652,-13.4752341957538,-16.9758159037945,1.73325459702161,-5.10432549429526,-41.6569583169979,1.32124356339238,45.7894432057505,-0.290120613323032,-26.4545864322548,9.83070185194684
3.4783831199598,-13.4107215927957,-16.9634204656106,1.6931192424208,-5.1404473934046,-41.3309431232318,1.34991109729864,45.3778348022682,-0.208743561358167,-26.4185562971568,10.0727135064654
3.4590345156083,-13.3453269683752,-16.9538552186606,1.65493287757028,-5.17238333239413,-41.0096439874388,1.37218955388227,44.9698598743969,-0.143781822475901,-26.3776696796177,10.3214729082011
3.44096239782361,-13.2793400143747,-16.9469306470457,1.61871231347367,-5.19995161872572,-40.6935310668798,1.38819276873278,44.5663699014279,-0.0940921360427117,-26.3325576818718,10.5759020474039
3.42312957831642,-13.2130410093423,-16.9424305821378,1.58446546688551,-5.22297492948253,-40.3830241888133,1.39813107287416,44.1681155577219,-0.0583932958059696,-26.2838359883903,10.8349104025649
3.40455184821656,-13.1466968334584,-16.9401182806527,1.55219200016006,-5.24128628507553,-40.0784917497335,1.4023092032665,43.775741491578,-0.0352920560793264,-26.2320953863389,11.0974191195329
3.38432342736998,-13.0805572026562,-16.9397426799954,1.52188371619323,-5.25473495928947,-39.7802501998975,1.40112189188404,43.3897829885801,-0.0233101846394699,-26.1778951313213,11.3623852186203
3.36163677052266,-13.0148512367877,-16.9410446381455,1.4935246944325,-5.26319205597458,-39.4885641483523,1.39504728800096,43.010664635824,-0.0209119078077598,-26.1217592693826,11.6288248802718
3.33579694845978,-12.949784467058,-16.9437629855021,1.46709118253487,-5.26655551914545,-39.2036470869487,1.38463842380664,42.6387010091429,-0.0265310709140907,-26.0641758262879,11.8958349562149
3.30623107055101,-12.8855363727876,-16.9476402394521,1.44255128605741,-5.26475439889334,-38.925662701361,1.37051297123348,42.2740993221079,-0.0385974304969095,-26.0055986370865,12.1626119708321
3.27249334094597,-12.8222585191092,-16.9524278543224,1.41986452354731,-5.25775225864581,-38.654726722837,1.35334155954482,41.9169639148372,-0.0555615881377279,-25.946451509466,12.4284680065952
3.23426637526878,-12.7600733461471,-16.9578909008924,1.39898133478607,-5.24554966839141,-38.3909092732682,1.33383493092926,41.567302421149,-0.075918157342827,-25.8871343664487,12.6928430034689
3.1913593800058,-12.699073636846,-16.9638120936505,1.37984264183226,-5.22818577529775,-38.1342376574031,1.31273021149411,41.2250334245304,-0.0982268213074688,-25.8280309681982,12.9553131441914
3.14370373974783,-12.6393226656443,-16.9699951113325,1.36237956166645,-5.20573897385455,-37.8846995516573,1.29077657746607,40.8899953878319,-0.12113099714978,-25.7695177569954,13.2155951450716
3.09134648778488,-12.5808550052181,-16.976267185217,1.3465133552196,-5.17832671307136,-37.642246528898,1.26872060765068,40.5619566154341,-0.143373880819722,-25.711973310388,13.4735464230077
3.03444206604225,-12.5236779456023,-16.9824809570519,1.33215567496848,-5.14610448384222,-37.4067978468766,1.24729163233028,40.24062598187,-0.163811713191207,-25.655787834097,13.7291612583035
2.97324271807756,-12.4677734608418,-16.9885156318295,1.31920914891646,-5.10926403413045,-37.1782444175582,1.22718740919478,39.9256641419326,-0.181424184391378,-25.6013720830663,13.9825632130154
2.90808780681989,-12.4131006438581,-16.994277468584,1.3075683176094,-5.06803087115743,-36.9564528662057,1.2090604701873,39.616694928774,-0.195321978313708,-25.5491650782996,14.2339941897974
2.83939230729237,-12.3595985204722,-16.9996996646208,1.29712092379381,-5.02266113131363,-36.7412695833287,1.19350548231798,39.3133166520616,-0.204751545141571,-25.4996400081496,14.4838006194899
2.76763469265103,-12.3071891476728,-17.0047416956821,1.28774953897273,-4.9734379265945,-36.5325246704674,1.18104794794038,39.0151130290497,-0.209097265333174,-25.4533077710197,14.7324173389479
2.69334440785044,-12.2557808983717,-17.0093881777623,1.27933349406659,-4.92066730317272,-36.3300356831499,1.17213453805322,38.7216635147432,-0.207881224427651,-25.4107177269342,14.9803497601408
2.61708910746571,-12.2052718345596,-17.0136473166788,1.27175106086656,-4.86467396486542,-36.1336110822141,1.16712531083111,38.4325528371458,-0.20076085114161,-25.3724553830624,15.2281549436743
2.53946182136787,-12.1555530729725,-17.0175490089887,1.26488180797254,-4.80579691564978,-35.9430533198807,1.16628802137194,38.1473795838313,-0.187524684267036,-25.3391369419198,15.4764221854805
2.46106820331289,-12.1065120526576,-17.0211426524998,1.25860903325985,-4.74438515891531,-35.7581615102781,1.16979467961684,37.8657637236187,-0.168086531985203,-25.3114008541974,15.725753707441
2.38251401288945,-12.0580356231797,-17.0244947189275,1.25282216057465,-4.6807935602583,-35.5787336623182,1.17772045910007,37.5873529823346,-0.142478275572528,-25.2898966901147,15.9767460030788
2.3043929809982,-12.0100128862172,-17.027686138612,1.24741898662592,-4.61537894346625,-35.4045684802258,1.19004499405812,37.3118280266637,-0.11084155228912,-25.2752717533234,16.2299723202545
2.22727521369183,-11.9623377413031,-17.0308095476457,1.24230767538002,-4.54849645349135,-35.2354667608185,1.20665602420353,37.0389064460253,-0.0734185321525174,-25.2681559271112,16.485966667434
2.15169629926917,-11.9149111065826,-17.0339664479106,1.23740841638408,-4.48049618857163,-35.071232437353,1.22735526074486,36.7683455575256,-0.0305419815790086,-25.2691452945249,16.7452096227591
2.07814729883459,-11.8676428049796,-17.0372643286943,1.23265468353455,-4.41172007683469,-34.911673336304,1.25186626434134,36.4999440899905,0.0173752153869899,-25.2787851333286,17.0081161222018
2.00706581972219,-11.8204531221735,-17.0408137966059,1.22799404799194,-4.34249895323334,-34.7566017217199,1.2798440544657,36.2335428274942,0.0698509279793003,-25.2975529541976,17.275025314964
1.93882839105396,-11.7732740533038,-17.0447257605448,1.22338851331159,-4.27314978491065,-34.6058346992895,1.31088611480091,35.9690243103542,0.126344906762199,-25.325842306201,17.5461925016905
1.87374437594357,-11.7260502601607,-17.0491087196828,1.21881435514825,-4.20397300008757,-34.4591945413555,1.34454442225428,35.7063117035282,0.18627004191882,-25.3639480907112,17.8217831081624
1.81205165824379,-11.6787397612538,-17.0540662019002,1.21426146548205,-4.13524989614413,-34.3165089802336,1.3803381077612,35.4453669502602,0.249003626627989,-25.4120540888669,18.1018685913694
1.75391432507293,-11.6313143755442,-17.0596943954424,1.20973222417836,-4.0672401310514,-34.1776115044923,1.41776635404258,35.186188333262,0.313898498925717,-25.470223319146,18.3864241312308
1.69942252228316,-11.5837599381957,-17.066080007598,1.2052399476632,-4.00017933094002,-34.0423416829783,1.45632114713515,34.928807566913,0.380293934120974,-25.5383917038778,18.6753279360137
1.64859458440167,-11.5360763038692,-17.0732983731554,1.20080699055175,-3.93427686864726,-33.9105455346214,1.49549952464638,34.6732865432049,0.447526160921693,-25.6163653439488,18.9683619866954
