Finger Velocity,Scap_X,Scap_Y,Scap_Z,Shoulder horiz abd-adduction,Shoulder flexion-extension,Shoulder internal-external rotation,elbow flexion-extension,forearm pronation-supination,wrist flexion-extension,wrist radial-ulnar deviation
1.22910584430499,-8.10169849292084,-28.5956327884376,0.473767832042873,-6.23217567178804,-40.4136525741516,2.4767907029485,50.3224025792664,-23.9191140562544,-47.4868329777211,32.2849987492907
1.42086946015065,-8.08673684555778,-28.5972473136689,0.489026320822645,-6.29401788470417,-40.3788484895285,2.42803505425108,50.3133779975278,-23.7700808920089,-47.3736293101345,32.1795917204074
1.61693654589521,-8.07073755471441,-28.5990995956172,0.505681411200752,-6.36263097771026,-40.3433078142835,2.37622050453163,50.3094224096147,-23.6019161527781,-47.2243520983853,32.0435451082176
1.81560978456868,-8.05375267154177,-28.6010344194631,0.523629969928576,-6.43807716930438,-40.3072656053211,2.32169272183667,50.3111284704099,-23.4142768268978,-47.0369069998527,31.8750577233969
2.01513764351909,-8.03585024139801,-28.602887736013,0.542750997482578,-6.52034277613372,-40.2709647288669,2.26483441795356,50.3190694413548,-23.207020953837,-46.8097856431064,31.6727763745534
2.21374424288059,-8.01711407952506,-28.604490371945,0.562906895644395,-6.60933425470165,-40.2346507984589,2.20605781899099,50.3337895213849,-22.9802161854062,-46.5421474491016,31.4358542522297
2.40966026475687,-7.99764319113742,-28.605671989118,0.583945032610012,-6.70487558436765,-40.1985667961149,2.14579659465915,50.3557941949354,-22.734144282995,-46.2338860499399,31.1639962764626
2.60115421817236,-7.97755083922041,-28.6062651597087,0.605699572702045,-6.80670708583278,-40.1629474911733,2.08449756999938,50.3855407819504,-22.469301384986,-45.8856762159744,30.8574884409395
2.78656334919456,-7.95696327693358,-28.6061094150027,0.627993531124791,-6.9144857241245,-40.1280137810133,2.02261255960147,50.4234293658371,-22.1863940289615,-45.4989976325941,30.517208664042
2.96432347629368,-7.93601817331805,-28.6050551234082,0.6506410085128,-7.02778689864916,-40.0939670839368,1.96059066000513,50.4697942589267,-21.8863310489596,-45.0761326299162,30.1446174198039
3.13299704001834,-7.91486276979255,-28.6029670568143,0.673449556470925,-7.1461076813183,-40.0609839149394,1.89887130723308,50.5248961422412,-21.5702115829474,-44.6201360633401,29.7417274498506
3.29129868454932,-7.89365181045035,-28.5997275125731,0.696222624655114,-7.26887143153178,-40.0292107687016,1.8378783540703,50.5889149892445,-21.2393095212716,-44.134776926776,29.3110530854555
3.43811773711354,-7.87254529177061,-28.5952388711994,0.718762041614014,-7.39543369541466,-39.9987594198926,1.77801535110907,50.6619438542583,-20.8950548029398,-43.6244528705007,28.8555410429484
3.57253701948973,-7.85170607716409,-28.5894254889412,0.740870484993079,-7.52508928544408,-39.9697027281571,1.71966213397996,50.7439835773582,-20.5390120185722,-43.0940804685271,28.3784858763666
3.69384751325736,-7.83129741830904,-28.5822348510537,0.762353902033888,-7.65708043294818,-39.9420710048224,1.66317273608219,50.8349384303489,-20.1728568032255,-42.5489656770483,27.8834344333577
3.80155850580191,-7.81148041803996,-28.5736379456834,0.78302384875895,-7.79060590532848,-39.9158489641696,1.60887457334779,50.9346127048043,-19.798350502764,-41.9946602787217,27.3740845139546
3.89540296554788,-7.7924114593804,-28.5636288579808,0.802699725283174,-7.92483097633038,-39.8909732494726,1.55706879468063,51.0427082249916,-19.4173135837119,-41.4368110745997,26.8541833601259
3.97533802990227,-7.77423961419937,-28.5522236269071,0.821210894124829,-8.05889812606883,-39.8673304978711,1.50803166044957,51.1588227561587,-19.0315982380251,-40.8810090568134,26.3274315440548
4.04154063458875,-7.75710403523682,-28.5394584499135,0.838398676370825,-8.19193832546283,-39.84475589206,1.46201679655514,51.2824492713094,-18.6430606179446,-40.3326456939466,25.79739726339
4.09439846408168,-7.74113132880727,-28.5253873588511,0.854118225291122,-8.32308272863267,-39.8230321432481,1.41925816546403,51.4129760363576,-18.2535331281089,-39.7967827698695,25.2674450375665
4.13449655417069,-7.72643290376156,-28.5100795193623,0.86824027793371,-8.45147456131579,-39.8018888598878,1.37997359113276,51.5496874736291,-17.8647972061867,-39.2780410080662,24.7406814476889
4.1626000223937,-7.71310229592001,-28.4936163222461,0.880652783319182,-8.57628095978655,-39.7810022788684,1.34436866772298,51.6917657661032,-17.4785570385691,-38.7805111387038,24.2199190511146
4.17963353177866,-7.70121247583245,-28.4760884378867,0.891262402758935,-8.6967044893301,-39.7599953663002,1.31264087348528,51.8382931689926,-17.0964146796223,-38.3076893136863,23.7076581263159
4.1866581982306,-7.69081316053584,-28.4575929945851,0.899995874768349,-8.81199405886646,-39.7384383286879,1.28498370613194,51.9882550014893,-16.719847066059,-37.8624370367147,23.2060846316509
4.18484672116986,-7.6819281659667,-28.4382310203907,0.9068012342705,-8.92145495222347,-39.7158496073772,1.26159065907666,52.1405433009222,-16.350185436897,-37.4469642239711,22.7170818081891
4.17545753970795,-7.67455285410989,-28.418105258719,0.911648872846844,-9.02445771895315,-39.6916974551529,1.24265887079526,52.2939611362321,-15.988597679093,-37.0628327842911,22.2422522788944
4.15980878314028,-7.66865174516759,-28.3973184343231,0.914532423297851,-9.12044570840751,-39.6654022100597,1.22839230136975,52.4472275991323,-15.6360741124129,-36.7109772886785,21.7829472972812
4.13925268879723,-7.66415637761882,-28.3759720113495,0.915469447885108,-9.20894108682359,-39.6363393857809,1.21900431788241,52.598983518398,-15.2934171948066,-36.3917389045001,21.3402999311242
4.11515100258453,-7.66096350694107,-28.3541654514893,0.914501905968333,-9.28954924294536,-39.6038436898067,1.21471959906256,52.7477979709254,-14.9612355623106,-36.1049087594792,20.9152593458331
4.08885166736047,-7.6589337370464,-28.3319959489589,0.911696374036388,-9.36196155690431,-39.567214061042,1.21577529523885,52.8921756870044,-14.6399427121199,-35.8497771993724,20.5086238770661
4.06166686276451,-7.6578906777112,-28.3095585907794,0.907143989780965,-9.42595657314807,-39.5257197899664,1.22242139994377,53.0305654626793,-14.329760498496,-35.6251859146767,20.1210711587863
4.03485222079269,-7.65762071692564,-28.2869468656459,0.900960092010761,-9.48139967545668,-39.4786077503295,1.23492030341631,53.1613696972445,-14.0307274466455,-35.4295805266978,19.7531841258413
4.00958684834228,-7.65787348913622,-28.2642534228714,0.893283529706928,-9.52824140674433,-39.4251107346511,1.25354550534559,53.2829551678724,-13.7427117065449,-35.2610618409602,19.405472190795
3.98695368984913,-7.65836310820249,-28.2415709659631,0.884275616102417,-9.56651460667326,-39.3644568482741,1.27857946566142,53.3936651353588,-13.4654282741659,-35.1174345372824,19.0783872901054
3.96791980355053,-7.65877021682195,-28.218993155997,0.874118707168809,-9.59633055592427,-39.2958798791601,1.3103105717229,53.4918328445982,-13.1984599143407,-34.9962525635383,18.7723348215755
3.95331632918727,-7.65874488211985,-28.1966154001695,0.863014388532972,-9.61787431837008,-39.2186305233876,1.34902920251695,53.5757964419285,-12.9412810470519,-34.8948609424714,18.4876797714671
3.94381828708862,-7.65791034106842,-28.1745354107707,0.851181261357222,-9.63139946317615,-39.1319883097963,1.39502287859436,53.6439152825936,-12.6932837287452,-34.8104340713695,18.2247485506559
3.9399248222892,-7.65586757118132,-28.1528534381239,0.838852327136672,-9.63722233006341,-39.0352740318054,1.44857050162469,53.6945875489995,-12.4538047871899,-34.7400108592138,17.9838272064444
3.94194100677488,-7.65220063339175,-28.1316721062854,0.826271984361837,-9.63571597521853,-38.9278624605958,1.50993571042608,53.7262690440121,-12.2221531538423,-34.6805271918565,17.7651567474599
3.94996272662779,-7.64648270668953,-28.1110958105498,0.813692666102832,-9.62730390610039,-38.8091950830578,1.57935941235513,53.7374929604656,-11.9976364717838,-34.6288462641381,17.5689263339334
3.96386639789601,-7.63828270906621,-28.0912296683184,0.801371165077085,-9.61245368478961,-38.6787925826264,1.65705159036617,53.7268903584639,-11.7795861272902,-34.5817873104721,17.3952650727993
3.98330519750649,-7.62717237731366,-28.0721780467644,0.789564709382849,-9.59167045581602,-38.5362667635268,1.7431825342916,53.6932110109754,-11.5673799469781,-34.5361532455347,17.2442331384215
4.00771314517234,-7.61273365975921,-28.0540427198713,0.778526865800141,-9.56549043880581,-38.3813316101559,1.8378736951009,53.6353442129023,-11.360461908861,-34.4887577159242,17.1158129239488
4.03631778014275,-7.59456626153468,-28.0369207329366,0.768503357043126,-9.53447441936426,-38.213813173807,1.94118840892569,53.5523390961844,-11.1583583263079,-34.4364520514355,17.0099009090247
4.06816145057394,-7.57229517169093,-28.0209020741424,0.759727884007897,-9.4992012705292,-38.0336579894917,2.0531227813849,53.4434239585151,-10.960690078033,-34.376152566927,16.9263008934362
4.10213050633998,-7.54557799553414,-28.0060672691207,0.75241804439718,-9.4602615378693,-37.8409397470565,2.17359706041777,53.308024098471,-10.7671805825448,-34.3048685835819,16.8647191787125
4.13699107903225,-7.51411191463952,-27.9924850235163,0.746771436743365,-9.41825112160226,-37.6358639728424,2.30244785406365,53.1457776573856,-10.5776593646688,-34.2197313936316,16.8247621615885
4.17142972462895,-7.47764010215168,-27.9802100389822,0.742962035560806,-9.37376508921739,-37.4187705191835,2.43942156326444,52.9565490005201,-10.3920612428886,-34.1180241741066,16.8059366181657
4.20409701972361,-7.43595743239841,-27.9692811203756,0.741136920028142,-9.32739165364955,-37.1901337070131,2.58416939291591,52.7404392248391,-10.2104213697055,-33.9972125878188,16.8076527184112
4.23365221811222,-7.38891534003495,-27.9597196781651,0.741413435319355,-9.27970635693258,-36.9505600191774,2.73624427255369,52.497793447218,-10.0328665515554,-33.8549755604689,16.8292295708962
4.25880723748038,-7.33642570272637,-27.9515287121385,0.743876862342361,-9.2312665079655,-36.7007832967504,2.89509996017564,52.2292045916489,-9.85960342323819,-33.6892355543192,16.8699029174885
4.27836849264217,-7.27846364165108,-27.944692341526,0.748578667711457,-9.1826059327629,-36.4416574476682,3.06009252199047,51.9355134514663,-9.69090413778243,-33.4981875806378,16.9288344971295
4.29127536535587,-7.21506915661862,-27.9391759230461,0.755535399506968,-9.1342301005436,-36.1741467380862,3.23048428447527,51.6178048580094,-9.52709026742058,-33.2803261695396,17.0051225538103
4.29663435932035,-7.14634753891968,-27.9349267722975,0.764728282938546,-9.08661168488495,-35.8993138025721,3.40545025285779,51.2773998494749,-9.36851561508782,-33.0344695181981,17.0978129493069
4.29374820747415,-7.07246853557907,-27.9318754756745,0.776103551459526,-9.04018660782595,-35.6183055770945,3.58408689149867,50.9158438087584,-9.21554861722445,-32.7597800722509,17.2059103524739
4.28213936618673,-6.99366427191866,-27.9299377504742,0.789573523727332,-8.9953506025794,-35.332337424463,3.76542307289574,50.534890627608,-9.06855497499054,-32.4557808776709,17.3283890228752
4.26156744601058,-6.91022597284249,-27.9290167820523,0.805018407931893,-8.95245632095213,-35.042675781375,3.94843292645966,50.1364830531209,-8.92788108185497,-32.1223671689954,17.464202788559
4.23204019561175,-6.82249955494736,-27.9290059420735,0.822288786329741,-8.91181100319159,-34.7506197063639,4.13205025740871,49.7227294756198,-8.79383872875423,-31.759812812198,17.612293929039
4.19381768162931,-6.73088018967732,-27.9297917748534,0.841208708264401,-8.87367471957461,-34.4574817456223,4.31518416003262,49.2958775185542,-8.66669147476448,-31.3687713722059,17.7716008069908
4.14740930227473,-6.6358059604681,-27.9312571317715,0.861579302303998,-8.83825918668414,-34.1645685561893,4.49673541709253,48.8582848882617,-8.54664298054513,-30.9502717091537,17.9410642333065
4.09356324987995,-6.53775075282114,-27.9332843361462,0.883182808000788,-8.8057271591434,-33.8731617322204,4.67561325763429,48.4123880322066,-8.43382751917115,-30.5057081170039,18.1196326809379
4.03324801717052,-6.4372165258976,-27.9357582693526,0.90578692401395,-8.7761923990265,-33.5844992708496,4.85075203832201,47.9606692329392,-8.3283028053933,-30.0368251074707,18.3062665684855
3.96762555362774,-6.33472511987344,-27.9385692790177,0.929149370263374,-8.74972022815762,-33.2997580913258,5.02112741737043,47.5056228228326,-8.23004521687276,-29.5456970210253,18.4999419122917
3.89801576495603,-6.23080975769063,-27.9416158195014,0.953022565536875,-8.72632867121504,-33.0200379865577,5.1857716057304,47.0497212367289,-8.13894741496908,-29.0347027241636,18.6996537000117
3.82585226714921,-6.12600640429171,-27.9448067443069,0.977158326490597,-8.70599019781107,-32.7463473417533,5.34378731042466,46.5953816280921,-8.05481830610239,-28.5064957352219,18.9044193661915
3.75262972194383,-6.02084515024342,-27.9480631819504,1.0013124975036,-8.68863406604767,-32.4795909023205,5.49436003247975,46.144933764503,-7.97738522192278,-27.9639702092595,19.1132827337204
3.67984375027666,-5.91584178752819,-27.9513199433601,1.02524942232647,-8.67414925566973,-32.2205598140885,5.63676844572406,45.7005898933192,-7.9062981451913,-27.4102232958265,19.3253187072033
3.60892536699451,-5.81148974083152,-27.9545264312337,1.04874616759522,-8.66238795605469,-31.969924093954,5.77039265805254,45.2644172255112,-7.84113576964132,-26.848514457331,19.5396388748125
3.54117305189988,-5.7082525079365,-27.9576470487805,1.07159640624858,-8.65316954546896,-31.7282276190091,5.89472023697602,44.8383136186716,-7.78141314929015,-26.2822224107099,19.7553980297526
3.47768680730932,-5.60655675085693,-27.9606611323602,1.09361386904011,-8.6462849671007,-31.4958856500151,6.00934995974646,44.4239869453147,-7.72659066149474,-25.7148004395618,19.9718014948189
3.4193095672561,-5.50678616790791,-27.9635624536144,1.11463527867771,-8.64150138000448,-31.2731848366598,6.11399332054165,44.0229385142248,-7.67608398416762,-25.1497309034146,20.1881130352295
3.36658175555202,-5.40927626532888,-27.9663583480596,1.13452269501288,-8.63856694608897,-31.0602855934404,6.20847389210907,43.6364507819528,-7.62927478068274,-24.5904798171467,20.4036630702991
3.31971430569029,-5.31431013214482,-27.9690685298887,1.15316521830658,-8.63721561182209,-30.8572266883606,6.29272469773295,43.2655794608323,-7.58552179905521,-24.0404523746508,20.6178568362621
3.27858390184321,-5.22211530177773,-27.9717236517614,1.17048001626823,-8.6371717538023,-30.6639318490233,6.36678380075622,42.9111500078782,-7.54417211863239,-23.5029502601175,20.8301821097709
3.24275172900813,-5.13286175966395,-27.9743636682789,1.18641265707396,-8.63815457539299,-30.4802181579269,6.43078835943208,42.5737583698425,-7.50457230923173,-22.9811315443003,21.0402160767959
3.21150410461311,-5.0466611305249,-27.9770360632909,1.20093674680125,-8.63988216406517,-30.3058059796883,6.4849674187443,42.2537757642545,-7.46607929962491,-22.4779739020947,21.2476309260273
3.18391066424255,-4.96356705391337,-27.9797940010977,1.21405288928565,-8.64207514725499,-30.1403301394425,6.52963371393432,41.9513571937383,-7.42807078253498,-21.9962418013406,21.4521977608166
3.15889390399712,-4.88357673248796,-27.9826944570776,1.22578701071116,-8.64445991897462,-29.9833520555817,6.56517474586734,41.6664533203417,-7.38995501059176,-21.5384581942947,21.6537884642627
3.13530318750734,-4.80663361342611,-27.9857963743925,1.23618811766396,-8.64677144430563,-29.8343725216397,6.59204336627112,41.3988252674973,-7.35117986166864,-21.1068810972488,21.8523752253285
3.11198679110168,-4.73263113832925,-27.9891588832716,1.24532558060952,-8.64875567470572,-29.6928448310512,6.61074809207056,41.1480618700943,-7.31124107326322,-20.7034852837641,22.048027541732
3.0878568715986,-4.66141746968298,-27.9928396118034,1.2532860502889,-8.65017161839262,-29.5581879439949,6.62184335689022,40.9135988603538,-7.26968956361527,-20.3299491577629,22.2409066488266
3.06194394760675,-4.5928010728725,-27.9968931139501,1.260170121529,-8.6507931087924,-29.4297994073704,6.62591989948913,40.6947394622148,-7.22613776922327,-19.9876467272872,22.4312574662884
3.03343917000036,-4.52655700560669,-28.0013694396647,1.26608885980075,-8.6504103057001,-29.3070677584432,6.62359547313407,40.4906758719034,-7.18026493116659,-19.6776444797123,22.6193982895879
3.00172404037519,-4.46243374595472,-28.0063128706571,1.27116030296271,-8.64883095380049,-29.1893841706674,6.61550603019344,40.3005111263342,-7.13182125734127,-19.4007028699458,22.8057085671861
2.96638819808217,-4.40016037783902,-28.0117608433726,1.27550604421424,-8.64588141521959,-29.0761531345431,6.60229749589865,40.1232809001564,-7.08063088123663,-19.1572820702566,22.9906151866315
2.9272364440897,-4.33945394782647,-28.0177430794341,1.27924799115716,-8.64140748755022,-28.9668020034419,6.5846182032778,39.9579748212621,-7.02659353715882,-18.9475515860868,23.1745777386339
2.88428638359537,-4.28002680838006,-28.0242809420238,1.28250537975812,-8.63527501432935,-28.8607892733767,6.56311202378454,39.8035569479407,-6.96968487790075,-18.7714033114993,23.358073242235
2.83775805438939,-4.22159377021058,-28.0313870313343,1.28539210303415,-8.62737028906227,-28.7576115083276,6.53841219598103,39.6589851039743,-6.90995537081056,-18.6284675790119,23.5415808087162
2.78805676497153,-4.16387889997607,-28.0390650226262,1.28801439607688,-8.6176002466476,-28.6568088683101,6.51113582676223,39.5232288177462,-6.84752772165392,-18.5181317508774,23.7255667081081
2.73575017806393,-4.10662181856079,-28.0473097392487,1.29046890422155,-8.60589243040176,-28.557969241037,6.48187901662837,39.3952856563866,-6.78259279685856,-18.4395608970542,23.9104702801214
2.68154050499005,-4.04958337732053,-28.0561074433257,1.29284114895337,-8.59219472245131,-28.4607310142282,6.45121254725778,39.2741957856769,-6.7154040491657,-18.3917200954469,24.0966910918602
2.62623257241971,-3.99255061140173,-28.0654363201948,1.29520439333251,-8.5764748310681,-28.3647845524462,6.41967807384533,39.159054621454,-6.64627050307787,-18.3733978635274,24.28457768344
2.57069852114943,-3.93534088773514,-28.0752671290572,1.29761889426958,-8.55871953820219,-28.269872462446,6.38778478865329,39.0490234700309,-6.57554842414063,-18.3832302011846,24.474418168193
2.51584002053592,-3.87780518137977,-28.0855639905181,1.30013151590578,-8.53893372053195,-28.1757887487476,6.35600655633503,38.9433380855157,-6.50363187254117,-18.4197247230189,24.6664328789004
2.46254913769838,-3.81983043138143,-28.0962852808877,1.3027756701203,-8.51713916505675,-28.0823769785392,6.32477955015209,38.8413151025601,-6.43094241395381,-18.4812844006673,24.8607691787521
2.4116693652425,-3.76134094886435,-28.1073846036082,1.30557154757227,-8.49337320471274,-27.9895275905055,6.29450043053708,38.7423563347988,-6.35791831746839,-18.5662305051076,25.0574984806821
2.36395872324165,-3.70229887426664,-28.1188118107901,1.30852660431989,-8.46768720286564,-27.8971744922988,6.26552510182263,38.6459509618418,-6.28500360646716,-18.6728244010341,25.2566154395191
2.32005720468511,-3.64270370376471,-28.1305140520655,1.31163627266392,-8.44014492202053,-27.8052910938718,6.23816806319607,38.5516756608192,-6.21263734271646,-18.7992878846201,25.4580392039681
2.28046098986745,-3.58259092508858,-28.1424368313603,1.31488486819203,-8.41082082353983,-27.7138859201334,6.21270234090103,38.4591927724623,-6.14124351648852,-18.9438217909456,25.6616165478274
2.24550567608106,-3.522029821351,-28.1545250524977,1.31824666728851,-8.37979835807628,-27.6229979403226,6.18935995451987,38.3682466269739,-6.07122188554167,-19.1046226569024,25.8671266451473
2.2153601684889,-3.46112052020559,-28.1667240323164,1.321687131139,-8.34716831437362,-27.5326917457332,6.16833283653382,38.2786581914912,-6.00294005425055,-19.2798973146935,26.0742872109763
2.1900318738709,-3.39999038468699,-28.178980458139,1.32516425338512,-8.31302729279182,-27.443052700973,6.14977409938523,38.1903182384946,-5.93672701418497,-19.4678753908477,26.2827616986132
