Finger Velocity,Scap_X,Scap_Y,Scap_Z,Shoulder horiz abd-adduction,Shoulder flexion-extension,Shoulder internal-external rotation,elbow flexion-extension,forearm pronation-supination,wrist flexion-extension,wrist radial-ulnar deviation
0.99203046570032,-13.8504788400437,-23.3535767230173,6.0017742965497,-8.430006772835,-44.0873766778904,2.96939909223896,72.0733516829581,-29.2733615810863,-25.6691894802593,-9.87901653545759
1.08407328536957,-13.9306125949359,-23.3258067632745,5.88387839099644,-8.24857120334954,-44.0958818823331,3.0299213993207,71.9555641784096,-28.9654676780064,-26.0833736494651,-9.41320796531723
1.18490221862479,-14.0148368305281,-23.2995872552277,5.76081062727589,-8.05540466678868,-44.1029103794542,3.0957583950819,71.836979294223,-28.6185067693211,-26.527745766427,-8.90958043256175
1.29604767470661,-14.1025717379308,-23.2754026581043,5.63348143109778,-7.85125295519789,-44.1079145794833,3.16707720498835,71.7190368768428,-28.2326230558851,-26.9986032331056,-8.37158565683726
1.41897046725163,-14.1931898694818,-23.2537101357149,5.50286026809411,-7.63695778539454,-44.1103147385703,3.24401015809125,71.6031993504515,-27.8084848101259,-27.4916907871602,-7.80337592728113
1.55495060184758,-14.2860283427051,-23.2349284629744,5.36995633017819,-7.4134351426418,-44.1095018469971,3.32665005319343,71.4909147750294,-27.3472950646305,-28.0023086333392,-7.20972806545691
1.7049895250597,-14.3804017861765,-23.2194277945182,5.23579829434073,-7.1816515086196,-44.1048402195662,3.41504521974758,71.383578870724,-26.8507901320382,-28.5254389691065,-6.59594770873276
1.86973499900158,-14.4756156355878,-23.2075206246887,5.10141378979949,-6.94259886259351,-44.095669786813,3.50919437543656,71.2824973325325,-26.3212250060289,-29.0558855971851,-5.96775719751751
2.04943257338793,-14.5709793853429,-23.1994542242209,4.96780920109073,-6.69726942248768,-44.0813081455955,3.60904134951741,71.1888497659004,-25.7613450666177,-29.5884201716852,-5.33117134955637
2.24390272895277,-14.6658194151057,-23.1954047882202,4.83595039638597,-6.44663111625242,-44.0610524783903,3.7144698193117,71.1036564979727,-25.174343987563,-30.1179278400622,-4.69236620076824
2.45253954406153,-14.7594910401893,-23.1954734735235,4.70674490780718,-6.19160474434804,-44.0341814891738,3.82529828009534,71.0277493657537,-24.5638082952245,-30.6395447564399,-4.05754625452684
2.67432553981489,-14.8513894789328,-23.199684439845,4.58102600787627,-5.93304371385798,-43.9999575287915,3.94127552249481,70.9617473639781,-23.9336496173271,-31.1487802383464,-3.43281582140915
2.90785772362165,-14.9409594873095,-23.2079849372137,4.45953902745902,-5.67171709768202,-43.957629094487,4.06207692223782,70.9060377709203,-23.2880262436003,-31.6416172467346,-2.82405962694996
3.15138101252657,-15.027703475018,-23.2202474046474,4.34293015260493,-5.40829660584878,-43.9064338878592,4.1873018598033,70.8607630823538,-22.6312561613824,-32.1145863589783,-2.23683704643322
3.40282652346567,-15.1111879799694,-23.2362734680761,4.23173782964943,-5.14334786084141,-43.845602604296,4.31647258990539,70.8258137961858,-21.9677242005098,-32.5648103590942,-1.67629317644237
3.65985329184692,-15.1910484331301,-23.2557996565622,4.12638680791024,-4.87732615713765,-43.7743636057781,4.44903487549221,70.8008268259442,-21.3017862969076,-32.9900187665639,-1.14708861710141
3.91989269582818,-15.2669921911338,-23.2785046005072,4.02718476286487,-4.61057667081776,-43.6919485974353,4.58436068075374,70.7851891011496,-20.6376741260844,-33.388533790676,-0.653348492601706
4.18019524634833,-15.3387998511045,-23.3040174366587,3.93432137333054,-4.3433388841452,-43.5975993846294,4.72175316804309,70.7780457532702,-19.9794034199308,-33.7592310894628,-0.198630033133084
4.43787953853973,-15.4063248929746,-23.3319271225985,3.84786967540283,-4.07575481744256,-43.4905757308614,4.8604541541721,70.7783121965389,-19.3306891287016,-34.1014801659362,0.214092922972797
4.68998314063938,-15.4694917215171,-23.3617923562993,3.76778948326812,-3.8078805257591,-43.3701642698264,4.99965405476387,70.7846893933921,-18.6948702255837,-34.4150701558821,0.582430818977833
4.93351509592386,-15.5282922054565,-23.3931518017576,3.69393265055748,-3.53970022399636,-43.2356883528467,5.13850419480479,70.795681637113,-18.074846414923,-34.7001271102859,0.904567321606879
5.16550958259413,-15.5827808359611,-23.4255343372735,3.62604994288717,-3.27114235045435,-43.0865186422637,5.27613120697723,70.8096162758796,-17.4730283670426,-34.9570286645422,1.17923899747678
5.38308014753667,-15.6330686521949,-23.4584690661022,3.56379929910722,-3.00209686148944,-42.9220841991717,5.41165309472115,70.8246649240395,-16.8913024404856,-35.1863213034704,1.40570815384138
5.5834738201824,-15.6793161069824,-23.4914948569294,3.50675527087324,-2.73243306336146,-42.7418837667543,5.54419642117848,70.8388658369862,-16.3310102295718,-35.3886444385936,1.58373085940615
5.76412433099246,-15.7217250694705,-23.5241692114961,3.4544194424136,-2.46201732421314,-42.5454969231537,5.6729140121643,70.8501472481412,-15.7929427293056,-35.5646644088469,1.7135217255705
5.92270360868931,-15.7605301818573,-23.5560762872966,3.40623164196714,-2.19073006178378,-42.3325947723485,5.79700253772998,70.8563515699501,-15.2773484591235,-35.7150204762389,1.79571669388167
6.05717071123887,-15.7959898021429,-23.58683393307,3.36158176426953,-1.91848146580746,-42.1029498577792,5.91571935730058,70.8552604407842,-14.7839545379362,-35.8402840298621,1.8313349093604
6.16581735574166,-15.8283767735996,-23.6160996222321,3.31982203242864,-1.64522548858465,-41.8564450183636,6.02839806224559,70.8446206530019,-14.3119994512998,-35.9409315593344,1.82174074518269
6.24730924823326,-15.8579692638828,-23.6435751948498,3.28027953872786,-1.37097172555947,-41.5930809536416,6.13446221196176,70.8221710195312,-13.8602760839768,-36.0173314632415,1.76860709996154
6.30072247086238,-15.8850419123966,-23.6690103450893,3.24226891547962,-1.0957949073239,-41.3129823160672,6.23343682918232,70.7856702221945,-13.4271834896987,-36.0697443503899,1.67388112572872
6.32557425415919,-15.9098575141388,-23.6922048213968,3.20510499514365,-0.819841825640663,-41.0164021972591,6.32495729864427,70.7329256335476,-13.0107858162767,-36.0983361197907,1.53975350301508
6.32184753692756,-15.932659452527,-23.7130093424053,3.16811532022783,-0.543335607360389,-40.703724917188,6.40877540066813,70.6618230196281,-12.6088767806776,-36.103202754298,1.36863224276545
6.29000878330115,-15.9536650732012,-23.7313252722727,3.13065235768757,-0.266577324741448,-40.3754670583095,6.48476230212654,70.5703569208157,-12.2190480786717,-36.0844054582066,1.16312179348672
6.23101856903676,-15.9730601654042,-23.7471031421982,3.09210526181672,0.0100550108335744,-40.032276709796,6.55290841498543,70.4566613807216,-11.8387601042653,-36.0420145400029,0.926008004376138
6.14633444504383,-15.99099468641,-23.7603401451355,3.051911015472,0.286109978046224,-39.6749309029703,6.61332011758859,70.3190405599122,-11.4654133409229,-35.9761602794802,0.660249240969028
6.03790550685293,-16.007579826217,-23.7710767627678,3.00956476098133,0.561068666537077,-39.3043312332751,6.66621342523298,70.1559986439534,-11.0964187750163,-35.8870888889926,0.368973644692236
5.90815790914034,-16.0228864633433,-23.7793927045475,2.96462910758385,0.834352830223079,-38.9214976811861,6.7119048036459,69.966268343115,-10.7292656830561,-35.7752215590047,0.0554821664833522
5.75997022579194,-16.0369450093902,-23.7854023472495,2.91674217386672,1.10533509171476,-38.5275606654084,6.75079944014325,69.7488371925101,-10.3615851695264,-35.6412144688352,-0.276743392986542
5.59663703452926,-16.0497465854199,-23.7892498593991,2.86562410270071,1.37335098775645,-38.1237513860584,6.78337740418054,69.5029708067567,-9.99120789216713,-35.4860175534941,-0.624028515541766
5.42181839175686,-16.061245425008,-23.7911041764678,2.81108179114432,1.63771259481666,-37.7113905456745,6.81017821493518,69.2282322331726,-9.6162145178192,-35.3109297522326,-0.982491855946761
5.23947201123282,-16.0713623623615,-23.7911539601182,2.75301162057158,1.89772339872643,-37.2918755761834,6.83178437429259,68.9244965880787,-9.23497761560602,-35.117648428772,-1.34803085094363
5.05376414597815,-16.0799892388328,-23.7896026339977,2.6914000475704,2.15269398806589,-36.8666665499621,6.84880442816033,68.5919602510031,-8.84619392128436,-34.9083106574641,-1.71630930976585
4.86895477676301,-16.0869940440561,-23.786663550181,2.62632200816285,2.40195807925975,-36.4372710054593,6.86185610582903,68.2311440270292,-8.4489061967415,-34.6855241266115,-2.08274944047782
4.68925338434956,-16.0922265952237,-23.7825553125012,2.5579371832494,2.64488833559271,-36.0052279639901,6.87155006586678,67.8428898642861,-8.04251425795355,-34.4523855254011,-2.4425308271779
4.51864422289664,-16.0955245471188,-23.7774972677833,2.48648426431382,2.88091142566037,-35.5720914495644,6.87847474654469,67.4283509260669,-7.62677514361606,-34.2124844517651,-2.79059880291972
4.36068549909385,-16.0967195166632,-23.7717051728018,2.41227344079691,3.10952177819907,-35.1394138459743,6.88318277319817,66.9889750549579,-7.20179282543281,-33.9698911116735,-3.12168446112936
4.21829543868815,-16.0956431034008,-23.7653870537276,2.33567740199717,3.33029352944154,-34.7087294335756,6.88617930758015,66.5264819167098,-6.76799829210167,-33.7291264081065,-3.43033819757657
4.09354859434727,-16.0921325979885,-23.758739294921,2.25712120569432,3.54289022530938,-34.2815384417154,6.88791263071377,66.0428343617802,-6.32612124095964,-33.49511348605,-3.71097815066068
3.98751445669548,-16.0860361977927,-23.7519430207012,2.17707140597683,3.74707193193099,-33.8592919314578,6.88876713645927,65.5402047784333,-5.87715494859098,-33.2731104379299,-3.9579541958605
3.90017247723266,-16.0772175879959,-23.7451608604817,2.09602483743171,3.94269952225967,-33.4433777870362,6.88905879951847,65.0209374167176,-5.42231612871584,-33.0686246705851,-4.1656272708596
3.83042896025347,-16.0655597884284,-23.7385342071255,2.01449740974572,4.12973603812085,-33.0351080458742,6.88903309384803,64.4875078235259,-4.963001698027,-32.8873103264701,-4.32846283447303
3.77624219581627,-16.0509682037203,-23.7321810831187,1.93301318857642,4.30824516061489,-32.6357077430717,6.88886527844087,63.9424806359782,-4.50074435283925,-32.7348510373015,-4.44113630830619
3.73483868579512,-16.0333728478899,-23.7261947146977,1.852093957621,4.47838693876907,-32.2463053937902,6.88866291655241,63.388467026371,-4.03716872096681,-32.6168310762514,-4.49864751714556
3.70298447615007,-16.0127297472711,-23.7206428825906,1.77224939792576,4.64041101651161,-31.8679251880458,6.88847043433401,62.828083072106,-3.57394961337333,-32.5385986272786,-4.49644047790238
3.67726837004945,-15.9890215582888,-23.7155680760804,1.69396798961121,4.79464766151118,-31.501480928297,6.88827545557774,62.2639102401772,-3.11277358701355,-32.5051254257747,-4.43052437409973
3.65435906270055,-15.9622574681495,-23.7109884306547,1.61770873598567,4.94149693923838,-31.1477717052823,6.88801657731813,61.6984590371399,-2.65530467864417,-32.5208674768269,-4.29759115975351
3.63121142557268,-15.9324724755828,-23.7068993840243,1.54389382445692,5.08141639498241,-30.8074792844518,6.88759218356886,61.1341366944179,-2.20315481557137,-32.5896319190785,-4.09512496011523
3.60521188967925,-15.8997261712934,-23.703275947364,1.47290235795348,5.21490761170236,-30.4811671605149,6.88686984754843,60.5732195484096,-1.7578590888564,-32.7144553071531,-3.82149832377474
3.57426445345317,-15.8641011485052,-23.7000754632191,1.40506529680918,5.34250201103243,-30.1692812257902,6.88569586612078,60.0178305484254,-1.32085581842566,-32.8974985520678,-3.47605049233694
3.53682555743396,-15.8257011712689,-23.6972407084126,1.3406617355236,5.46474626478322,-29.8721519875445,6.88390450991817,59.4699220957271,-0.893471163795555,-33.1399634431819,-3.0591432239226
3.49189848881015,-15.7846492144712,-23.6947031962367,1.27991659966475,5.58218768795895,-29.589998259319,6.88132665147008,58.9312641941406,-0.476907931871492,-33.4420350733851,-2.57219034161213
3.43899762321419,-15.7410854681244,-23.6923865352455,1.22299978467158,5.69535999138803,-29.3229322362566,6.87779753996993,58.4034376840148,-0.0722381796688796,-33.8028536139216,-2.01765807564443
3.37809116743699,-15.6951653736269,-23.690209711252,1.17002667901231,5.80476977607472,-29.0709658397488,6.87316360339783,57.8878321435581,0.319600824325518,-34.2205177628441,-1.39903441397309
3.30952917409748,-15.647057736409,-23.6880901733217,1.12105993898561,5.91088414224051,-28.8340181836692,6.86728824698619,57.3856478854805,0.697807750677449,-34.6921208697409,-0.720767029246839
3.23396202235563,-15.5969429415356,-23.6859466225606,1.07611232734243,6.01411975852343,-28.6119239794868,6.86005666479075,56.8979013654104,1.06171597780019,-35.2138192788426,0.0118291502891639
3.15225351796088,-15.5450112869523,-23.6837014238946,1.03515039625841,6.11483369270569,-28.4044426671114,6.85137969350689,56.4254332597106,1.41079050933107,-35.7809308869579,0.792692083103854
3.06539227606448,-15.49146144139,-23.6812825846564,0.998098784498594,6.21331624861778,-28.211268037086,6.84119673013012,55.968918462839,1.74462356658764,-36.3880603327102,1.61515625365379
2.9744050123835,-15.4364990282412,-23.6786252670605,0.964844906431457,6.30978598798047,-28.0320381008688,6.82947772329588,55.5288772904308,2.06292934252772,-37.0292456908749,2.47211411924116
2.88027561501496,-15.3803353316128,-23.6756728218387,0.935243834016012,6.40438704429926,-27.8663449712153,6.81622424480186,55.105687244439,2.36553832649814,-37.6981201552855,3.35618843058402
2.78387418367041,-15.3231861156072,-23.6723773465971,0.909123207684846,6.49718876176756,-27.7137445333382,6.80146965962517,54.6995947927362,2.6523915004947,-38.3880811300473,4.25990764090642
2.68590035738763,-15.2652705424866,-23.6686997865274,0.886288052852627,6.58818761816118,-27.5737657152923,6.7852784389072,54.3107267312104,2.92353457970354,-39.0924586411394,5.17587635153278
2.58684496306468,-15.2068101701781,-23.6646096100724,0.866525419036051,6.67731131975344,-27.445919196191,6.76774469589856,53.9391008267366,3.17911233810921,-39.8046752242414,6.096933201744
2.48697312786596,-15.1480280054308,-23.6600841100853,0.849608791447316,6.7644248908461,-27.3297054177261,6.74899006401343,53.5846355794842,3.41936293908609,-40.5183904467224,7.01628977070367
2.38633046636866,-15.0891475860755,-23.6551074011801,0.835302246754892,6.84933852140778,-27.2246217866483,6.72916107238777,53.2471590853564,3.64461209538998,-41.2276247723042,7.92764571467969
2.2847719195501,-15.0303920639316,-23.6496692028509,0.823364336538819,6.9318168837121,-27.1301689765054,6.70842620061793,52.9264171134546,3.855266825276,-41.9268593078704,8.82527726504501
2.18201060380871,-14.9719832595739,-23.6437635112347,0.813551686973169,7.01158958530622,-27.0458562605075,6.68697280569655,52.6220806288181,4.05180855911911,-42.6111098818984,9.70409816682669
2.07768203568884,-14.9141406631741,-23.6373872671373,0.805622304423014,7.08836239599706,-26.9712058360754,6.66500410824729,52.333753080159,4.23478538415199,-43.2759757239643,10.5596939715568
1.97141770900414,-14.8570803628357,-23.630539123446,0.799338576640625,7.1618288743744,-26.9057561341091,6.64273640099605,52.0609778323405,4.40480328611519,-43.9176645659248,11.3883321330348
1.8629214328314,-14.8010138917344,-23.6232184025722,0.794469960323843,7.23168202418843,-26.8490641385498,6.62039660079529,51.8032461528101,4.56251634092538,-44.5329971293919,12.1869514546652
1.75204208132498,-14.7461469952562,-23.6154243166252,0.790795348938651,7.29762562934176,-26.8007067706001,6.59822021068836,51.5600061605964,4.70861590752309,-45.119394649935,12.9531350547114
1.63883723580422,-14.6926783275789,-23.6071555025776,0.788105119493342,7.35938494553835,-26.7602814147119,6.57644969903179,51.3306731167754,4.84381895521338,-45.6748533385593,13.6850711807415
1.52362325249595,-14.6407980936648,-23.5984099042769,0.78620286197735,7.41671646590826,-26.7274056794924,6.55533324956826,51.1146413768471,4.96885571084983,-46.1979095644769,14.381505994377
1.40700814881442,-14.5906866579841,-23.5891850140394,0.784906798955049,7.46941652670607,-26.7017164966382,6.53512379828812,50.9112982394122,5.0844568295052,-46.6875991581162,15.0416919641568
1.28990395513586,-14.5425131460774,-23.579478468459,0.784050904856096,7.51732857513844,-26.6828686666035,6.51607825244798,50.7200398162474,5.19134028417012,-47.1434136831348,15.6653348506517
1.17351444315033,-14.4964340697207,-23.56928897502,0.783485735332289,7.56034898027307,-26.6705329622866,6.49845678166614,50.5402889236771,5.2901981485941,-47.5652558985108,16.2525415321272
1.05929209818054,-14.4525920110162,-23.5586175278363,0.783078977141326,7.59843132563506,-26.6643939009848,6.48252207761703,50.3715148617235,5.38168342563671,-47.953395995989,16.8037701767362
0.948854804850304,-14.4111144044668,-23.5474688531021,0.782715728483729,7.63158917579977,-26.6641472889534,6.46853849635203,50.2132548123233,5.46639706210872,-48.308429612707,17.3197835865568
0.843848858792458,-14.3721124576091,-23.535853008491,0.782298519275171,7.65989735630609,-26.6694976326663,6.45677102301648,50.0651364569729,5.54487529854508,-48.6312381296114,17.8016059736756
0.745743977302205,-14.3356802488366,-23.5237870466752,0.781747081735085,7.68349182277939,-26.6801554984832,6.44748402561222,49.9269012944155,5.61757753347586,-48.9229513971753,18.2504830085495
0.655556088797611,-14.3018940354407,-23.511296643014,0.780997884379023,7.7025682190973,-26.6958348898379,6.44093978436262,49.798428037658,5.68487493385173,-49.184912778698,18.6678447106574
0.573528172178429,-14.2708117965693,-23.4984175833287,0.780003446354879,7.71737923810319,-26.7162506996217,6.43739679283326,49.6797553925764,5.74704008345354,-49.4186462449393,19.0552706150748
0.498869212458436,-14.2424730261057,-23.4851970105989,0.778731453463205,7.72823090662679,-26.7411162862269,6.43710782800141,49.5711034711883,5.80423800950811,-49.6258251622706,19.4144566166342
0.429749555664576,-14.2168987801941,-23.4716943391739,0.777163702005809,7.7354779226978,-26.7701412144159,6.4403177818606,49.472893072538,5.85651894528489,-49.8082423732557,19.7471829362561
0.363870551768031,-14.1940919735027,-23.4579817607886,0.775294901315195,7.73951817751394,-26.8030291951448,6.44726123888415,49.3857620730975,5.90381316199829,-49.967781174315,20.055282751567
0.300216898195521,-14.1740379079097,-23.4441442866226,0.773131369371258,7.74078659760201,-26.839476250547,6.45815977402334,49.310578206948,5.94592813689932,-50.1063868483521,20.3406111684079
0.243722919087219,-14.1567050084355,-23.4302792915176,0.770689657471017,7.7397484433847,-26.879169122069,6.47321893835679,49.2484475843843,5.98254822688543,-50.2260384946135,20.605014360292
0.215850935789759,-14.1420457350934,-23.4164955480518,0.767995139279021,7.73689219898802,-26.921783932329,6.49262489772776,49.2007183957047,6.01323690615478,-50.3287209952096,20.8502988522149
0.253675657129492,-14.1299976357608,-23.4029117585745,0.765080596765117,7.73272218479794,-26.966985104739,6.51654069600592,49.1689793733301,6.0374415206253,-50.4163970624979,21.0782010683401
0.364593282148828,-14.1204845028566,-23.3896546130176,0.761984830841057,7.72775101917696,-27.014424538636,6.5451021298499,49.1550527372641,6.05450042323306,-50.4909794329546,21.2903574059231
0.530379519011552,-14.1134175943799,-23.376856419624,0.758751318645724,7.72249204919209,-27.0637410317569,6.57841324690029,49.1609815210424,6.06365228696279,-50.5543034248529,21.4882752492178
0.740286067237582,-14.1086968779929,-23.3646523732896,0.755426933302575,7.71745186274335,-27.1145599382281,6.61654151456082,49.1890113591935,6.06404734454918,-50.6081002618843,21.6733054954006
0.990789135813453,-14.1062122565786,-23.3531775395549,0.752060736287922,7.7131229865862,-27.1664930510093,6.65951274929922,49.2415670018648,6.05476026925398,-50.6539717622676,21.8466173081159
