Finger Velocity,Scap_X,Scap_Y,Scap_Z,Shoulder horiz abd-adduction,Shoulder flexion-extension,Shoulder internal-external rotation,elbow flexion-extension,forearm pronation-supination,wrist flexion-extension,wrist radial-ulnar deviation
1.12942453319473,-7.21761972629888,-14.0436679223911,5.93249731058889,-15.3502580882366,-57.1078770461909,-4.27387131778954,72.6167439376305,-40.5604271769625,1.76996792227925,-15.5784769483439
1.3755721032917,-7.22210309787056,-14.0906739606418,5.8588347108986,-15.1696566952693,-57.0595647675154,-4.09678557352175,72.5385204434057,-40.0312561975061,1.76334456928154,-15.6179347949994
1.63943889510361,-7.22851394262803,-14.1381380685554,5.78552110798695,-14.992863700348,-57.0094391905601,-3.92348987932838,72.4770737620482,-39.4800203006581,1.74440087206331,-15.6513393303105
1.91950784382205,-7.23712133232843,-14.1857048942845,5.71270708932429,-14.8206627982419,-56.9571570214298,-3.75448084892184,72.433861087825,-38.909942475514,1.71088911034347,-15.677070401092
2.21406630160163,-7.24820328961987,-14.2330060376424,5.64047345189681,-14.6536647569961,-56.9022926288021,-3.59008134027843,72.4100509300856,-38.3244834989854,1.66057685575678,-15.6935648878666
2.52118885627586,-7.26204087673329,-14.2796646893438,5.56882935360924,-14.4922987728051,-56.8443353032515,-3.43044019218659,72.4064903749482,-37.7272724393742,1.59131060859547,-15.6993713383518
2.83873829531569,-7.27891136525431,-14.3253004476581,5.49771277624818,-14.3368092031615,-56.7826885813024,-3.27553696363372,72.4236791979182,-37.1220307235702,1.50108011565383,-15.6932017176006
3.16437759325425,-7.29908067317502,-14.3695342270161,5.42699325029925,-14.1872575211095,-56.7166718401342,-3.12519109001604,72.4617513801739,-36.5124918243444,1.38807987290232,-15.6739769735332
3.49558957468044,-7.32279529228401,-14.4119931804089,5.35647672255971,-14.0435292010821,-56.6455242860273,-2.97907474637525,72.5204643273543,-35.9023188736524,1.25076444928377,-15.6408634967507
3.82970246057237,-7.35027395927229,-14.4523155630982,5.28591238422329,-13.9053451478556,-56.5684113738944,-2.83672865047002,72.599195840117,-35.2950226852437,1.08789471505634,-15.5932982478304
4.16392017518712,-7.38169934671234,-14.4901554679583,5.21500122088487,-13.7722772106686,-56.4844336097691,-2.69758004468137,72.6969486467029,-34.6938827620423,0.898572766241143,-15.5310012499051
4.49535657954409,-7.41721006345609,-14.525187363654,5.14340599814795,-13.6437672766339,-56.3926376042549,-2.56096215406483,72.8123620872793,-34.1018738460562,0.682264213900084,-15.4539751758354
4.82107291406022,-7.45689325564568,-14.5571103680171,5.0707623590715,-13.5191494018896,-56.2920291655426,-2.42613451129816,72.9437303511293,-33.5216004157657,0.438807447894911,-15.3624927713424
5.13811776937879,-7.50077808735694,-14.5856521925714,4.99669068419496,-13.3976744075747,-56.1815881508963,-2.29230364931,73.0890265280958,-32.9552412409583,0.168410379201276,-15.2570737413785
5.44356890450916,-7.54883035335887,-14.6105727016437,4.9208083516556,-13.2785363344738,-56.0602847409502,-2.15864377107625,73.2459316585954,-32.404505688086,-0.128364112332497,-15.1384533935396
5.73457621699121,-7.60094843739513,-14.6316670413524,4.84274203332954,-13.1609001106612,-55.9270967648035,-2.02431709805324,73.4118679529101,-31.8706029705134,-0.450622344868715,-15.0075456999397
6.00840515256748,-7.65696078145739,-14.6487683087853,4.76213967307311,-13.0439297400168,-55.781027686284,-1.8884936648996,73.5840353860988,-31.3542250035783,-0.79717175869972,-14.8654034639438
6.26247982825814,-7.71662497871053,-14.6617497466211,4.67868181613096,-12.9268162704771,-55.6211248617443,-1.75037036717444,73.7594509366109,-30.8555429988837,-1.1665587799751,-14.7131779694962
6.49442513645037,-7.77962854785231,-14.6705264590707,4.59209199444074,-12.8088047584281,-55.4464976948814,-1.6091890841175,73.9349898041503,-30.3742174576786,-1.55711100866947,-14.5520799163599
6.70210710061029,-7.84559139119389,-14.6750566486934,4.50214591759321,-12.6892194218992,-55.256335339928,-1.46425369522079,74.1074280081664,-29.9094208360893,-1.96698240396737,-14.3833427333147
6.8836707663341,-7.91406988394121,-14.6753423712112,4.4086792680941,-12.5674861817961,-55.0499236359711,-1.31494579227892,74.2734858395573,-29.4598718767699,-2.39420039196479,-14.208188679831
7.03757493460243,-7.98456249033708,-14.6714298000171,4.31159394732101,-12.4431518339201,-54.8266609883968,-1.16073886377736,74.4298717236443,-29.0238804251919,-2.83671394340162,-14.0277976428819
7.16262307639895,-8.05651675653585,-14.6634089865378,4.2108626629671,-12.3158991761459,-54.5860729467081,-1.00121070342518,74.573326143054,-28.5994014332999,-3.29244165867461,-13.8432782856091
7.25798980759132,-8.12933749304443,-14.6514130989326,4.10653179065904,-12.1855575332189,-54.3278252590882,-0.83605377896797,74.7006653300318,-28.1840967391314,-3.75931879293437,-13.6556411932955
7.32324234757573,-8.2023959325515,-14.6356171216312,3.99872248387239,-12.0521082741676,-54.0517352089955,-0.665083300021487,74.8088244277468,-27.7754030520328,-4.23534199796174,-13.4657738024498
7.3583564311469,-8.2750396313704,-14.6162360034758,3.88763004880444,-11.9156851028352,-53.7577810531797,-0.488242749214334,74.8948997239539,-27.3706043636964,-4.71861040997805,-13.2744170886009
7.36372618588742,-8.34660287255052,-14.5935222522313,3.77352164581753,-11.7765691184556,-53.4461093829776,-0.305606690853142,74.9561894051981,-26.966906786563,-5.20736165977195,-13.0821441680506
7.34016752163015,-8.41641732357662,-14.5677629853325,3.65673242740171,-11.6351788832752,-53.1170402280674,-0.117380746054474,74.9902321246495,-26.5615136632723,-5.70000149587048,-12.8893411306042
7.28891459803574,-8.48382269978371,-14.5392764591147,3.53766027215418,-11.4920559799048,-52.7710697257387,0.0761012813807321,74.994842582696,-26.1516987588774,-6.19512599705363,-12.6961905722685
7.21160893460023,-8.54817718613299,-14.5084081129697,3.41675931735365,-11.3478467620185,-52.4088701998784,0.274383042612038,74.9681433189427,-25.7348754701449,-6.69153574347611,-12.5026584279049
7.11028069887578,-8.60886737635367,-14.4755261840746,3.29453251955145,-11.2032811653216,-52.0312875360089,0.476893871583604,74.9085919992671,-25.3086602456742,-7.18824174542567,-12.3084847797843
6.98732165062404,-8.66531750164997,-14.4410169729061,3.17152347898218,-11.0591495329525,-51.6393357971116,0.682959366971947,74.815003617311,-24.8709287576184,-7.68446335755829,-12.1131793069857
6.84544913555175,-8.71699774259202,-14.4052798656333,3.04830775377092,-10.9162784246472,-51.2341890894669,0.891814049459533,74.6865671793168,-24.4198637467655,-8.1796188105847,-11.9160219388268
6.68766042718033,-8.76343144784022,-14.3687222410735,2.92548387170978,-10.7755063391254,-50.8171707480439,1.10261578015364,74.522856581764,-23.9539938378103,-8.67330933677847,-11.7160691095741
6.51717664287983,-8.80420112125245,-14.3317544028498,2.80366422659093,-10.6376602008533,-50.3897399620902,1.31446158850399,74.3238355162799,-23.4722229674367,-9.1652981067194,-11.5121658235663
6.3373754708223,-8.83895308253296,-14.2947846785386,2.68346602610009,-10.5035333570648,-49.9534760059683,1.52640451527956,74.0898563492558,-22.9738503726203,-9.65548530404537,-11.3029635687674
6.15171213349437,-8.86740075250126,-14.2582148145734,2.56550244152002,-10.3738657071329,-49.5100602842391,1.73747103029426,73.8216530302688,-22.4585813446527,-10.1438806559862,-11.0869439771113
5.96362850993745,-8.88932655894312,-14.2224357684671,2.45037409646325,-10.249326450326,-49.0612564479624,1.9466785435921,73.520328186969,-21.9265291610985,-10.6305746615787,-10.8624480022818
5.77645129127902,-8.90458250069925,-14.1878239626153,2.33866101991327,-10.1304997936762,-48.6088888910429,2.1530525050165,73.1873346649146,-21.378208759936,-11.1157096695364,-10.6277102352938
5.59328157573611,-8.91308944457932,-14.1547380238023,2.23091517436305,-10.0178738139669,-48.154819987668,2.35564259188908,72.8244518681682,-20.8145228210568,-11.5994518828094,-10.3808977821595
5.41688043974118,-8.91483525989524,-14.1235159966928,2.12765365164062,-9.91183252531699,-47.7009264787642,2.55353752444339,72.4337573488381,-20.236740981813,-12.0819653104932,-10.1201528888811
5.24955756224279,-8.90987191741277,-14.0944729925725,2.02935260891952,-9.81265107607926,-47.2490754503769,2.74587812485573,72.0175941787703,-19.6464729489329,-12.5633886231126,-9.84363825335345
5.09307244270008,-8.89831169399472,-14.0678992176092,1.93644199775574,-9.72049389071587,-46.8011003647994,2.93186834336665,71.5785347115472,-19.0456362878988,-13.04381575038,-9.54958376690745
4.94855935759302,-8.88032263371515,-14.0440583166183,1.84930112079755,-9.63541548381293,-46.3587776052314,3.11078410177018,71.1193414050755,-18.4364196778995,-13.5232808750059,-9.23633331395246
4.8164870435623,-8.85612342332872,-14.0231859659629,1.76825503420293,-9.55736360463021,-45.9238039801664,3.28197993236868,70.6429254218373,-17.8212424199592,-14.0017482506673,-8.90239021659272
4.69666151879719,-8.82597784565013,-14.0054886503962,1.69357179921877,-9.48618432580726,-45.4977756088039,3.44489350079656,70.1523037536849,-17.2027109806301,-14.4791070441677,-8.54645991409951
4.58827546552637,-8.79018897729185,-13.9911425627126,1.62546057470217,-9.42162867511762,-45.0821685751299,3.59904818197789,69.6505556303687,-16.5835733452405,-14.9551711875184,-8.16748850310118
4.49000109924863,-8.74909329441714,-13.9802925731127,1.56407053366131,-9.36336042666917,-44.6783216953754,3.74405391029356,69.1407789661419,-15.9666719468223,-15.4296840300364,-7.76469583941353
4.40011705412336,-8.70305483946966,-13.9730512285957,1.50949057950886,-9.31096471196102,-44.2874216918141,3.8796065595795,68.6260475781352,-15.3548959367343,-15.9023274116362,-7.33760202202624
4.31665523066466,-8.65245958310969,-13.9694977621269,1.46174982907968,-9.26395716962467,-43.9104910072371,4.005486139263,68.1093698764057,-14.7511335786266,-16.3727346412531,-6.88604624672271
4.23755188652437,-8.5977100900506,-13.9696771163457,1.42081881792437,-9.22179341374266,-43.5483784316789,4.12155412283297,67.5936496822346,-14.158225583117,-16.8405067491936,-6.4101972412288
4.16078859424162,-8.53922056746265,-13.9735990149847,1.38661136945089,-9.18387865788241,-43.2017526499362,4.22775024317024,67.0816497812239,-13.5789202503344,-17.3052312706855,-5.91055478838016
4.08451221780344,-8.47741234380758,-13.9812371430899,1.35898705564395,-9.14957738305058,-42.8710987594306,4.32408907963999,66.5759587618216,-13.0158313312404,-17.7665026977931,-5.3879422087698
4.00712751393522,-8.41270979810508,-13.9925285203974,1.33775416691227,-9.11822298102412,-42.5567177550495,4.41065671392459,66.0789616271021,-12.4713995286976,-18.2239436114807,-4.84349008909272
3.92736018634693,-8.34553673660609,-14.0073731677369,1.32267310514255,-9.08912733782816,-42.2587289295226,4.48760764664358,65.5928145968964,-11.9478585117685,-18.6772253969615,-4.27861196734269
3.84429148512434,-8.27631319603381,-14.0256341714783,1.31346011802612,-9.06159034343819,-41.9770750933207,4.55516205629603,65.119424439398,-11.4472061997671,-19.1260873856975,-3.69497307525008
3.75736751015186,-8.20545263963457,-14.0471382440419,1.30979130218769,-9.03490932293617,-41.7115304772895,4.61360336245943,64.6604325897969,-10.971181888414,-19.5703532766379,-3.09445355785649
3.66638736651981,-8.13335950286026,-14.071676860587,1.31130681442242,-9.00838838440644,-41.4617111443084,4.66327594148946,64.2172042335377,-10.52124955256,-20.0099437665428,-2.47910782107619
3.57147452600506,-8.06042703748468,-14.0990080276914,1.31761524225141,-8.9813476741782,-41.2270877022134,4.70458274512015,63.7908224569698,-10.0985873893586,-20.4448844587917,-1.851121783986
3.47303549385545,-7.9870353952398,-14.1288587140326,1.32829809734778,-8.95313252380924,-41.0070000783605,4.73798249666795,63.3820874977908,-9.70408339053658,-20.8753083251209,-1.2127698159257
3.37170943098954,-7.91354988536155,-14.1609279487397,1.34291440998489,-8.92312246639271,-40.8006740860904,4.76398609353834,62.9915210570268,-9.33833648463496,-21.3014522729494,-0.566373013531261
3.26831192251668,-7.84031933664856,-14.1948905710457,1.36100541931197,-8.89074008880127,-40.6072394843539,4.78315184205504,62.6193755564316,-9.00166259918038,-21.7236477242078,0.0857397657580907
3.16377571978556,-7.76767449613772,-14.2304015943552,1.3820993684831,-8.85545966339921,-40.4257492052815,4.79607920724658,62.2656481351448,-8.69410487912798,-22.1423055209598,0.741267016250064
3.05909105675135,-7.69592640542989,-14.2671011269776,1.40571641965221,-8.81681546454774,-40.2551994039722,4.80340087796121,61.9300990788107,-8.41544726706044,-22.5578958839533,1.39796509776063
2.95524804397002,-7.62536471294398,-14.3046197691928,1.43137369915461,-8.77440963172036,-40.0945499720234,4.80577310395972,61.6122742709683,-8.16523069066919,-22.9709244867464,2.0536737412399
2.85318362575762,-7.55625590515796,-14.342584382348,1.4585904694518,-8.72791940627195,-39.9427451494619,4.80386442482576,61.3115311584789,-7.94277119267334,-23.3819059167869,2.70633641869509
2.75373556510816,-7.48884146988999,-14.3806241022706,1.48689340492804,-8.67710354693659,-39.7987338666766,4.79834306292641,61.0270676344044,-7.74717945898409,-23.7913358686084,3.35401566499995
2.65760579120076,-7.42333603589766,-14.4183764489103,1.51582192703261,-8.6218077143529,-39.6614894494823,4.78986339219355,60.7579531659418,-7.57738134034366,-24.1996633790738,3.99490359357638
2.56533509748639,-7.35992556064486,-14.4554933691507,1.54493353400811,-8.56196860326017,-39.5300283288048,4.77905201884209,60.5031614359646,-7.43213910742775,-24.6072643105078,4.62732795872054
2.47729053460237,-7.29876565857482,-14.4916470418733,1.57380904358056,-8.49761659659711,-39.4034274118798,4.76649410569433,60.2616037293386,-7.31007330648626,-25.0144171528106,5.24975420388753
2.39366588637246,-7.23998017499512,-14.5265352748835,1.60205765355403,-8.42887672846237,-39.2808397921566,4.75272061809899,60.0321622838887,-7.20968516422643,-25.4212820648494,5.86078400523007
2.3144944252776,-7.18366011644412,-14.5598863331674,1.6293217146339,-8.35596778078833,-39.1615084988788,4.73819715259538,59.8137228435969,-7.12937951116964,-25.8278838997956,6.45915086789091
2.23967188583991,-7.12986304719349,-14.5914630573044,1.65528110237023,-8.27919940104368,-39.044778015671,4.72331493097721,59.6052056975815,-7.0674881589013,-26.234099759596,7.04371335914128
2.16898650030223,-7.07861305217304,-14.6210661582346,1.67965707225411,-8.19896720653264,-38.9301033329507,4.70838441631718,59.4055945574624,-7.02229359998862,-26.6396514286304,7.61344658228492
2.10215223910819,-7.02990134795389,-14.6485366069089,1.70221548499852,-8.11574592380398,-38.817056343579,4.69363185119519,59.2139627108563,-6.99205282215261,-27.044102870253,8.16743251938521
2.03884124837209,-6.98368759647866,-14.6737570710893,1.7227692981351,-8.03008069013297,-38.7053294458278,4.67919884690564,59.0294959839124,-6.97502095757659,-27.4468628194373,8.70484988633591
1.97871192374472,-6.93990194457792,-14.6966523840673,1.74118023463548,-7.94257671167461,-38.5947362823211,4.6651449793495,58.8515121464373,-6.96947443627273,-27.8471923401996,9.22496412549869
1.92143003299813,-6.89844777996571,-14.7171890602072,1.75735955850916,-7.85388752719113,-38.4852096161644,4.65145318668345,58.6794764957272,-6.97373328626369,-28.2442170370512,9.72711810213763
1.86668164111082,-6.85920516352767,-14.7353738997971,1.7712679104936,-7.76470216851074,-38.3767964221152,4.63803762836822,58.5130134571839,-6.98618222377165,-28.6369434458222,10.2107239864332
1.81417810862628,-6.82203486877552,-14.7512517505217,1.78291418334719,-7.67573154217521,-38.2696503471291,4.62475356231732,58.3519141399226,-7.00529019984341,-29.0242790034583,10.6752567052945
1.76365494130871,-6.78678293252959,-14.7649025146891,1.79235344506508,-7.58769438356376,-38.1640217670458,4.61140872714315,58.1961398836925,-7.02962810956714,-29.4050549047731,11.1202492351119
1.7148676140041,-6.75328559687151,-14.7764375098671,1.79968394822067,-7.50130315542196,-38.0602457310344,4.59777567715882,58.045821929283,-7.05788441798368,-29.7780510833437,11.5452898752009
1.66758856174867,-6.72137450223468,-14.7859953050256,1.80504329291423,-7.41725027471916,-37.9587281398653,4.58360450533474,57.9012574363231,-7.08887850428173,-30.1420225022554,11.95002150054
1.62161025460263,-6.69088197635754,-14.7937371634008,1.80860383834783,-7.33619505149605,-37.8599305464127,4.56863540007688,57.762902156241,-7.12157156688493,-30.4957259221036,12.3341426567133
1.57675961815353,-6.66164625483672,-14.7998422264755,1.81056748338102,-7.25875170803267,-37.7643539961735,4.55261051210909,57.6313601400757,-7.15507496604922,-30.837946346323,12.6974102443207
1.53292903408048,-6.63351646715028,-14.8045025713702,1.81115995865481,-7.18547881421543,-37.6725223415338,4.53528465747147,57.507370918146,-7.18865591325769,-31.1675224331417,13.0396434549768
1.49012876484504,-6.60635722798168,-14.8079182677999,1.81062478992443,-7.11687042284052,-37.5849654663495,4.51643445479286,57.3917946303606,-7.22174045715035,-31.4833702938654,13.3607285678049
1.44856481452058,-6.58005268764211,-14.810292551415,1.80921710191174,-7.0533491156355,-37.5022028482415,4.49586559157451,57.2855956117493,-7.25391377032373,-31.7845052381498,13.6606241862681
1.40874459389901,-6.55450991640205,-14.8118272183615,1.8071974336911,-6.9952610823774,-37.424727865712,4.47341803022533,57.1898249468244,-7.28491780952252,-32.0700611482828,13.939366482691
1.37160930729587,-6.52966152351678,-14.8127183320359,1.80482573144341,-6.94287326393493,-37.3529932258875,4.4489690878366,57.1056024977409,-7.3146464970748,-32.3393072495926,14.1970740208378
1.33868472050436,-6.5054674404696,-14.8131523181176,1.80235567343863,-6.8963725072376,-37.2873978469524,4.42243444128777,57.0340988847761,-7.3431386449942,-32.5916620915849,14.433951745128
1.31222792818179,-6.48191582795317,-14.8133025082828,1.80002946530795,-6.85586661143637,-37.2282754792829,4.39376721418857,56.9765178550525,-7.37056890626162,-32.8267045741038,14.6502937544368
1.29532472659029,-6.4590230963291,-14.8133261763232,1.79807322050049,-6.82138709007573,-37.1758852933805,4.36295539410329,56.9340794200941,-7.39723708327312,-33.0441818602484,14.8464845170866
1.29186457054493,-6.43683305882267,-14.8133620931872,1.79669301180633,-6.79289343293146,-37.1304046017659,4.33001790879922,56.9080040786022,-7.42355614634697,-33.2440140312356,15.022998238281
1.30630850599804,-6.41541526474008,-14.8135286110307,1.79607164729643,-6.77027862289292,-37.0919238162596,4.29499975580456,56.8994983717821,-7.45003931298412,-33.4262953763519,15.1803961732419
1.34320861995615,-6.39486258582194,-14.8139222714956,1.79636619128628,-6.75337564786861,-37.06044367377,4.2579666222809,56.9097419492209,-7.47728651234756,-33.5912922843839,15.3193217931265
1.40655852077843,-6.37528815176733,-14.8146169203344,1.79770622111738,-6.74196474386838,-37.0358746969565,4.21899944367148,56.9398762576565,-7.50597051513572,-33.7394378039885,15.4404938452558
1.49919457665679,-6.35682175028079,-14.8156633002731,1.80019278635069,-6.73578110982305,-37.0180387940545,4.17818932483069,56.9909949041563,-7.53682295645656,-33.8713230454897,15.5446974799668
1.62249046250261,-6.33960582186538,-14.8170890889179,1.80389802022791,-6.73452284387783,-37.0066728457099,4.13563318610163,57.0641356882066,-7.57062042879715,-33.9876856818036,15.6327737191722
1.7764323858935,-6.3237911892243,-14.8188993501759,1.808865344047,-6.73785886268986,-37.0014340757459,4.09143040483674,57.1602742429612,-7.60817078172922,-34.0893958617358,15.7056076053636
1.95995819120953,-6.30953266524262,-14.8210773749029,1.81511020161836,-6.7454365780518,-37.0019069580042,4.04568061222071,57.2803191744541,-7.65029973893524,-34.1774398773179,15.7641153980818
2.17136150138034,-6.29698468220498,-14.8235858950764,1.82262126082063,-6.75688911792486,-37.0076113748633,3.99848269098636,57.4251085400502,-7.6978379311292,-34.2529019336665,15.8092311874172
