Finger Velocity,Scap_X,Scap_Y,Scap_Z,Shoulder horiz abd-adduction,Shoulder flexion-extension,Shoulder internal-external rotation,elbow flexion-extension,forearm pronation-supination,wrist flexion-extension,wrist radial-ulnar deviation
0.869469100389267,-0.537936606866486,-8.41839303293622,10.5600004016287,-26.1861543720723,-56.68777927438,-12.0851544847188,73.125174831752,-32.4962609134488,8.25833567442186,-26.9453530484205
0.921054663410865,-0.501355694240357,-8.44544602678837,10.5801726893188,-26.2768680644559,-56.6544410022622,-12.0833143765184,73.1991439930255,-32.3904394407525,8.74915247672415,-27.4435058951629
0.998223559417001,-0.460858544738016,-8.47494489914169,10.6005410781208,-26.3823259697016,-56.6143734984714,-12.08875719273,73.2989877935375,-32.2786966831131,9.32259792321228,-28.027216106342
1.10343588600961,-0.416688973731993,-8.50664598661884,10.6207178021765,-26.5026415893672,-56.5665301191099,-12.1023261119412,73.4262797514742,-32.1617182394103,9.97860552908574,-28.6968803791847
1.23686432184558,-0.369170094445337,-8.54023897515822,10.640274804743,-26.6376617468769,-56.509762212939,-12.1247323521431,73.5821977100414,-32.0402277826372,10.7154674962125,-29.4512402541065
1.39696775843087,-0.318701687539624,-8.57534747415984,10.6587488873493,-26.786945632752,-56.4428191402575,-12.1565177888227,73.7674602322538,-31.9149642450192,11.5297529591888,-30.2872785742178
1.58122824754187,-0.265755084753383,-8.6115311626255,10.6756481061786,-26.9497489300744,-56.3643504575556,-12.1980179642825,73.9822678282961,-31.7866575952501,12.4162820339675,-31.2001687462845
1.78671938797768,-0.210865457480207,-8.64828957543694,10.6904593457056,-27.1250139455839,-56.2729106037935,-12.2493267844511,74.2262506714711,-31.6560038862017,13.3681651972475,-32.1832871477263
2.01043673729767,-0.154621482193371,-8.68506755811068,10.7026569504067,-27.3113665690307,-56.166966379529,-12.3102643320617,74.4984243639157,-31.5236403363596,14.3769142793625,-33.2282961016436
2.24945676227815,-0.0976524494843419,-8.72126237485251,10.7117122458715,-27.5071207322659,-56.0449074314374,-12.3803493114722,74.7971551544127,-31.3901212666814,15.432626522997,-34.3253003094744
2.50100641620288,-0.0406129899297772,-8.75623240678352,10.7171037358597,-27.7102908480951,-55.9050598425231,-12.4587776710769,75.1201357876564,-31.2558957254737,16.5242371210392,-35.4630738338511
2.76249821522648,0.0158342972191988,-8.78930732496446,10.7183277275737,-27.9186124921362,-55.7457027876232,-12.5444089159357,75.4643728935576,-31.1212875817469,17.6398291465011,-36.629348382449
3.03155865643334,0.0710379155669379,-8.81979956837859,10.7149091177846,-28.1295713631289,-55.56508805515,-12.6357615140507,75.8261865439757,-30.9864787604503,18.7669838346312,-37.811147740793
3.30606094902483,0.124377746135854,-8.84701690370552,10.7064120677356,-28.340440324031,-55.3614620757541,-12.7310185998642,76.2012223581197,-30.8514961710915,19.8931498054288,-38.9951487481492
3.58416428805797,0.175285945550347,-8.87027579511625,10.6924503014081,-28.5483240825275,-55.1330899563321,-12.8280448765689,76.5844763536759,-30.7162027972992,21.0060077996671,-40.168046967324
3.86435775844522,0.223267828501808,-8.88891527144033,10.6726967755793,-28.7502108040794,-54.8782809099584,-12.9244152151411,76.9703326061157,-30.5802933988837,22.0938081703572,-41.3169054897307
4.14550503231968,0.267922059199611,-8.90231094633377,10.6468924890835,-28.9430296542578,-54.5954144066367,-13.0174549599438,77.3526136461361,-30.4432953175738,23.1456615596843,-42.4294679774135
4.42688507454777,0.308959465035689,-8.9098888240439,10.6148542222606,-29.1237129389205,-54.2829663451653,-13.1042914084847,77.7246433389785,-30.3045749282807,24.1517683149383,-43.4944214959088
4.70822356434775,0.346219799097613,-8.91113850787931,10.5764810244666,-29.2892611639179,-53.9395345567366,-13.1819153731439,78.0793217107449,-30.1633502824311,25.1035784076298,-44.5016001100912
4.98970952292816,0.379685817565042,-8.90562542078892,10.5317592962528,-29.4368090030099,-53.5638629892956,-13.2472511966839,78.4092108026857,-30.0187103938877,25.9938800068689,-45.4421257377224
5.27199175583172,0.409494105690566,-8.89300165007273,10.4807663431434,-29.563689892197,-53.1548639837622,-13.2972331236837,78.7066301605174,-29.869641389183,26.8168206202521,-46.3084876631411
5.55615032181835,0.435942184469696,-8.87301504527034,10.42367230972,-29.6674968104287,-52.7116381382544,-13.3288855613768,78.9637600537861,-29.7150593955412,27.5678692616235,-47.0945659287221
5.84363950047508,0.459491559589449,-8.84551623416243,10.3607404339695,-29.7461367968574,-52.2334913652192,-13.3394045167272,79.1727500502942,-29.553849623436,28.2437311047271,-47.7956063396827
6.13620076973916,0.480766530879352,-8.81046328027699,10.292325589168,-29.7978769127652,-51.7199488758294,-13.3262373843454,79.3258302175778,-29.3849106610812,28.8422274818948,-48.4081560807092
6.43574710758184,0.500548754697677,-8.76792378724321,10.218871102054,-29.8213796864427,-51.1707659652814,-13.2871582924978,79.4154220242279,-29.207202548285,29.3621540694978,-48.9299691634959
6.74422327406643,0.519767728424825,-8.71807435654707,10.1409038534623,-29.81572656746,-50.5859356046741,-13.2203363952833,79.4342459685953,-29.0197967362948,29.8031289893287,-49.3598903958082
7.0634501472931,0.539487528251958,-8.66119741586231,10.0590276862907,-29.7804285244846,-49.9656929527094,-13.1243948124667,79.3754230599379,-28.8219255975632,30.1654407145766,-49.6977255852325
7.39496403487459,0.560890264512548,-8.59767554289109,9.97391517131964,-29.715423589735,-49.3105169715971,-12.9984583280036,79.2325675112937,-28.6130287906694,30.4499034503823,-49.9441045190942
7.73986349173091,0.585256814579263,-8.52798350486751,9.88629781572107,-29.621061818889,-48.6211293627038,-12.8421884185252,78.9998683706878,-28.3927935852715,30.6577253627808,-50.100342080312
8.09867606626305,0.613945448636443,-8.45267831186865,9.7969548390401,-29.4980787413393,-47.8984910342928,-12.6558046558008,78.6721583095873,-28.1611862654389,30.7903928910871,-50.1683017819701
8.47125547311842,0.648368978778214,-8.37238764117187,9.70670068304505,-29.3475588817882,-47.1437962897338,-12.4400919897558,78.2449683897862,-27.9184719851588,30.8495725595655,-50.1502650882433
8.85671630564597,0.689971040385011,-8.2877970289441,9.61637146339671,-29.1708913158938,-46.3584648973456,-12.196393859001,77.7145683186086,-27.66522094827,30.8370302927578,-50.0488091484945
9.25340926121127,0.740202063567361,-8.19963624422015,9.52681061235226,-28.9697194674592,-45.5441321878226,-11.9265914835952,77.0779924425482,-27.4022995000726,30.7545672524312,-49.8666949841734
9.65893578829968,0.800495421411576,-8.10866526020701,9.43885400147048,-28.7458874602885,-44.7026373292555,-11.6330700583792,76.3330524749404,-27.1308455951742,30.6039706164569,-49.6067676963133
10.0701977754979,0.87224416138661,-8.01566022274947,9.35331486814475,-28.5013853108433,-43.8360099525913,-11.3186728751575,75.4783386497819,-26.852229070032,30.386977457991,-49.2718698757491
10.4834757848814,0.956778645853067,-7.92139978890689,9.27096889518511,-28.238295100692,-42.9464553367403,-10.9866446542217,74.5132115826489,-26.5679981164919,30.1052499139831,-48.8647690961615
10.8945284399678,1.05534535431149,-7.8266521736776,9.1925398049671,-27.9587400190499,-42.03633840299,-10.6405655628717,73.4377875406604,-26.2798142507856,29.7603601065774,-48.3881001552844
11.2987057017817,1.1690870383405,-7.73216320312022,9.11868582751078,-27.664837841766,-41.1081667997647,-10.2842775478693,72.2529200202205,-25.9893788440828,29.3537837132814,-47.844322576292
11.6910695659429,1.29902437152834,-7.63864562870852,9.04998738589806,-27.3586600444292,-40.1645733686282,-9.92180471721186,70.9601804591055,-25.6983548857624,28.8869015593175,-47.2356937380675
12.0665168430448,1.44603919998662,-7.54676990997843,8.98693631437822,-27.0421973625798,-39.2082982639506,-9.55726957961387,69.5618405455212,-25.4082880645189,28.3610090382071,-46.5642578314574
12.4198998704812,1.61085947229264,-7.45715661935868,8.9299268870667,-26.7173322367659,-38.2421709511377,-9.19480699405288,68.0608579403915,-25.1205314652912,27.7773335089325,-45.831850633069
12.7461420736431,1.79404590942924,-7.37037056463504,8.8792488920088,-26.385818237,-37.2690922351591,-8.83847770453332,66.4608663461625,-24.8361781917095,27.1370600461244,-45.0401198562171
13.0403461678626,1.9959804646688,-7.28691666229871,8.83508293997888,-26.049266267544,-36.2920163793993,-8.4921833421138,64.7661698151492,-24.5560060356089,26.4413660041975,-44.190560574413
13.2978934563379,2.2168566199975,-7.20723753192944,8.79749815060951,-25.7091371173199,-35.3139332755374,-8.15958476739449,62.9817400985992,-24.2804379231445,25.6914647567675,-43.2845648896614
13.5145331589229,2.4566715696157,-7.13171272173307,8.76645230811639,-25.3667397426836,-34.3378505317968,-7.84402559836236,61.1132148162906,-24.0095212631247,24.8886586511381,-42.3234846015358
13.6864610436844,2.71522035279975,-7.06065942287939,8.74179452206455,-25.0232345411284,-33.3667752737438,-7.54846271586996,59.1668934007856,-23.7429285036184,24.0344006628772,-41.3087051034907
13.8103868705229,2.99209201809832,-6.99433448939151,8.72327036472825,-24.6796407884499,-32.4036954117584,-7.27540545890211,57.1497272522977,-23.479980171766,23.1303634728507,-40.241728095124
13.8835903307301,3.28666792615863,-6.93293755295701,8.71052938842897,-24.3368473595747,-31.4515601310595,-7.02686511243783,55.0693004100715,-23.2196904384207,22.1785137634254,-39.1242599733949
13.9039653059181,3.59812232365579,-6.87661500689091,8.70313485801544,-23.9956258245684,-30.5132594076371,-6.80431614704915,52.9337973383125,-22.9608338356003,21.1811884928565,-37.958301979198
13.8700523932145,3.9254253387209,-6.82546462740301,8.7005754684388,-23.6566449969672,-29.5916024463873,-6.60867048097855,50.7519551209467,-22.7020302152979,20.1411688283364,-36.7462373729494
13.7810597624362,4.26734855403623,-6.77954060152046,8.70227875662141,-23.3204860119188,-28.6892950705552,-6.44026579258002,48.5329983948389,-22.4418434761373,19.0617464132005,-35.4909101767638
13.636872530973,4.62247330554557,-6.73885874099614,8.70762586163105,-22.987657038845,-27.8089162507806,-6.29886860832104,46.2865566214199,-22.1788881526111,17.9467758740438,-34.1956894830119
13.4380509652857,4.98920183204168,-6.70340168328194,8.71596723913539,-22.658606800245,-26.9528941282616,-6.18369252286675,44.0225646646908,-21.9119368527086,16.800707123367,-32.864513156945
13.1858179437224,5.36577136372047,-6.6731239143312,8.72663889761803,-22.3337361796679,-26.1234820404144,-6.0934314653515,41.7511489526292,-21.6400209470688,15.6285912533122,-31.5019051223503
12.8820362418603,5.7502711867509,-6.64795648824698,8.73897869814961,-22.0134073584418,-25.3227351838819,-6.02630741227251,39.4825026008334,-21.3625170195953,14.4360547785432,-30.1129614448919
12.5291763262157,6.14066265673124,-6.627811356759,8.75234224981884,-21.697950121877,-24.5524886379054,-5.98013138529838,37.2267536605609,-21.0792124560889,13.2292387488557,-28.7033021846109
12.1302754622634,6.53480205649275,-6.61258525031445,8.76611794069983,-21.3876652119739,-23.8143375120488,-5.95237599908365,34.9938310578653,-20.7903451265094,12.0147018008331,-27.2789884474917
11.6888890558332,6.93046610232253,-6.60216307104243,8.77974066884584,-21.0828248494838,-23.1096199685632,-5.9402572792766,32.7933328068243,-20.4966142501627,10.7992893896129,-25.8464070586421
11.209035251208,7.3253797978981,-6.59642076904563,8.79270387780514,-20.7836707676024,-22.4394037971929,-5.94082299110262,30.6344007439164,-20.1991619782229,9.5899748869471,-24.4121284788562
10.6951339034488,7.7172462215307,-6.59522768029767,8.80456955509307,-20.4904102632924,-21.8044770907784,-5.95104434235649,28.5256054169054,-19.8995276911957,8.39368145400331,-22.9827465415599
10.1519411264289,8.10377771841921,-6.59844830805496,8.81497591749638,-20.2032108706771,-21.205343392634,-5.96790769084849,26.474843972419,-19.5995791944027,7.21709607337809,-21.5647108220264
9.58448069282518,8.48272786602194,-6.60594353209528,8.82364258067131,-19.922194303948,-20.6422214766329,-5.9885028269522,24.4892530355156,-19.301426658361,6.06648843465205,-20.1641635744502
8.99797363073557,8.85192349744143,-6.61757123536406,8.83037309095203,-19.6474303228093,-20.1150496979077,-6.01010453262312,22.5751377650273,-19.0073261428478,4.94754727665128,-18.7867929622415
8.39776742894527,9.20929601458601,-6.63318634906044,8.83505478725683,-19.3789311539498,-19.6234946394848,-6.03024443943404,20.737917572027,-18.7195798204139,3.86524528731608,-17.4377127577581
7.78926633815777,9.55291120855521,-6.65264033538734,8.83765606239773,-19.1166470563952,-19.166963603888,-6.04677070605395,18.9820884373913,-18.44043962625,2.82374097358239,-16.1213760254498
7.17786435337725,9.88099683350974,-6.67578015145957,8.838221200401,-18.8604635369464,-18.7446203818142,-6.05789367948526,17.3112013584083,-18.1720201200224,1.82632245526937,-14.8415269389321
6.56888260662423,10.1919672492429,-6.7024467665276,8.83686306659936,-18.6102005985873,-18.355403685821,-6.06221644632986,15.7278561775719,-17.9162250058142,0.8753944151816,-13.6011913158811
5.96751312700117,10.4844445483192,-6.73247333367668,8.83375400714101,-18.3656142477624,-17.998047665023,-6.05874996236153,14.2337098777597,-17.6746901954025,-0.0274940631531798,-12.4027031586332
5.3787712971128,10.7572757064754,-6.76568314202099,8.82911536811587,-18.1264003170297,-17.6711040002497,-6.0469132127915,12.8294983434892,-17.4487446963049,-0.881585934797264,-11.2477618338248
4.80745994660655,11.0095454314479,-6.80188749403071,8.82320607375075,-17.8922005041945,-17.3729651869664,-6.02651955054351,11.5150705614299,-17.239389119243,-1.6868241208218,-10.1375127387327
4.25814902261239,11.2405845270309,-6.8408836641051,8.81631071303062,-17.6626104074769,-17.1018887130021,-5.99775094193021,10.2894342357013,-17.047290357666,-2.44373923886257,-9.07264345474883
3.73517637424791,11.4499737267539,-6.88245309650807,8.80872757681046,-17.4371892541587,-16.8560219115612,-5.96112228140629,9.15081179730051,-16.8727900817719,-3.15332566886593,-8.05348740071675
3.24267762572859,11.6375430758499,-6.92635999038347,8.80075706170051,-17.2154709726558,-16.6334273153051,-5.91743819320825,8.09670577205476,-16.715924151375,-3.81691398516861,-7.08012768451356
2.78465643428183,11.8033670438086,-6.97235039637043,8.79269081213424,-16.9969762384421,-16.4321083580395,-5.8677448107186,7.12397242668338,-16.5764498787165,-4.43604678684814,-6.15249498218896
2.36510955452141,11.9477556298111,-7.02015191686292,8.78480191148677,-16.7812251263829,-16.2500352686294,-5.81327893060239,6.22890253412389,-16.4538782139496,-5.01236367490335,-5.27045463474248
1.98821867689936,12.0712417828894,-7.0694740660833,8.77733636375461,-16.5677500182105,-16.0851709788505,-5.75541670962389,5.40730798830594,-16.3475083018162,-5.54749973837806,-4.43387956497876
1.65859386355212,12.1745655056572,-7.12000931283357,8.77050603681576,-16.3561084383507,-15.9354968247653,-5.69562374303443,4.65461286037211,-16.2564623757126,-6.04300055676715,-3.64270694815324
1.38144744014401,12.2586550528406,-7.17143480206844,8.76448317335871,-16.1458955225199,-15.7990377614351,-5.63540797057268,3.96594733352212,-16.1797195310308,-6.50025548685628,-2.89697773674717
1.16229050065124,12.3246056764343,-7.22341473187921,8.75939652061665,-15.936755859723,-15.6738867385644,-5.576276437005,3.33624279925943,-16.1161474863902,-6.92044992690248,-2.19685909815965
1.00530027889191,12.3736564049593,-7.27560334715668,8.75532908590837,-15.7283944830465,-15.5582278127545,-5.51969652665542,2.76032626654892,-16.0645319448509,-7.3045363650066,-1.542650560858
0.909772765628058,12.4071653695134,-7.32764849539544,8.75231748879435,-15.520586808957,-15.4503575177328,-5.46706193040779,2.23301215122802,-16.0236035629919,-7.65322331599612,-0.93477519851437
0.866684744344725,12.4265842004365,-7.37919567099561,8.75035284762311,-15.3131873327371,-15.3487039915143,-5.41966331779722,1.74918949644155,-15.9920627966806,-7.96698069785031,-0.373757560020536
0.859804135499106,12.4334320152547,-7.42989245425728,8.74938310499322,-15.1061368810001,-15.2518433749299,-5.37866349503242,1.30390274121916,-15.9686030158089,-8.24605976342275,0.139809675544921
0.871430530745918,12.4292695031009,-7.47939323526281,8.74931666311683,-14.8994682108007,-15.1585130482851,-5.34507673962976,0.892424312555474,-15.9519322815765,-8.49052538081836,0.605308150972367
0.887361444062629,12.4156735852477,-7.52736410370189,8.75002716808933,-14.693309741215,-15.0676213583167,-5.31975200935574,0.510317565267256,-15.9407940807415,-8.70029825691549,1.02214311268529
0.898278083823013,12.3942130973086,-7.57348778216291,8.75135925286527,-14.487887215031,-14.9782536007451,-5.30335980983993,0.153488919060018,-15.9339871373088,-8.8752046305881,1.38979722024309
0.898940375585738,12.3664258968479,-7.61746848027878,8.75313502249932,-14.2835231153965,-14.889674156195,-5.29638264093647,-0.181771581451232,-15.9303842075227,-9.01503101705726,1.70788663926118
0.886937902963466,12.3337977507313,-7.65903654891922,8.75516104284072,-14.0806337016163,-14.8013248180284,-5.299109088502,-0.498761658842294,-15.9289495500015,-9.11958173000658,1.97621729252887
0.861685746669778,12.2977433005022,-7.6979528163915,8.75723557809086,-13.8797235791834,-14.7128194887516,-5.31163174887783,-0.800350124330523,-15.9287545890456,-9.18873709270642,2.19483928913207
0.82374520028166,12.2595893445912,-7.73401249221094,8.7591558167736,-13.6813777854452,-14.6239355482978,-5.33384923894857,-1.08897172647341,-15.9289911847524,-9.22251042801201,2.36409769357737
0.77438634503008,12.2205606178428,-7.7670485298602,8.76072483199524,-13.4862514585112,-14.534602305523,-5.36547253634745,-1.3666327768587,-15.9289819037182,-9.22110206905862,2.48467793068572
0.715306599610995,12.1817681946715,-7.79693435018686,8.76175804132496,-13.2950572620031,-14.4448870266609,-5.40603580508459,-1.6349264987901,-15.928186751256,-9.18494875896315,2.55764425875711
