Finger Velocity,Scap_X,Scap_Y,Scap_Z,Shoulder horiz abd-adduction,Shoulder flexion-extension,Shoulder internal-external rotation,elbow flexion-extension,forearm pronation-supination,wrist flexion-extension,wrist radial-ulnar deviation
2.1171739323192,-12.9728110846026,-13.4531130631575,6.91682804024675,-5.41288935677685,-45.9425945389714,3.01747194284459,62.5022451950234,-18.5781597883282,-13.1646123756459,-14.8965762078373
2.50477456214394,-12.9904709415944,-13.4627513859708,6.91711008783005,-5.42077399912943,-45.8195446830067,3.03739172837219,62.6388802711292,-18.1441006103534,-12.3504813976185,-15.6613549695425
2.95023290834701,-13.0071065310885,-13.4695624156683,6.91860556998281,-5.43918159367571,-45.6946334369606,3.05607286073463,62.8113521508633,-17.7087439406332,-11.5454736944812,-16.4048016553995
3.45035205801679,-13.0227041395608,-13.4734820307964,6.92133189728998,-5.46817451110766,-45.5674097072903,3.07293605653104,63.0222403320528,-17.2713967624923,-10.7514748069272,-17.1243420585806
4.00214695429069,-13.0372213555529,-13.4744754198709,6.92529768068445,-5.50776863654756,-45.4373199154723,3.08732279615058,63.273979831221,-16.8309636944593,-9.96992076049159,-17.8180483825395
4.60273407771824,-13.0505870444372,-13.4725359102838,6.93049933966257,-5.55793084263633,-45.3037077084736,3.09850317494945,63.5688263995563,-16.3859537054153,-9.20187467382712,-18.4845843482567
5.24920182558323,-13.062702584945,-13.4676834657327,6.93691750777142,-5.61857540393502,-45.1658147656186,3.10568724729596,63.9088239504152,-15.9344984899866,-8.44811594291451,-19.1231333066746
5.93850468760826,-13.0734443767639,-13.4599628439427,6.94451335231738,-5.68955938086011,-45.0227827346168,3.10803978802646,64.2957749322683,-15.4743823825766,-7.70923497352611,-19.7333160053151
6.66738912576067,-13.0826675841207,-13.4494414032036,6.95322492909559,-5.77067706432486,-44.8736563238488,3.10469822349821,64.7312142609286,-15.0030833537654,-6.98572708487173,-20.3151040806469
7.43234784087085,-13.0902110342714,-13.4362065485659,6.96296369207369,-5.86165363549495,-44.7173875710758,3.09479331495015,65.2163872869185,-14.5178243186232,-6.2780801663391,-20.8687344372258
8.22959683550049,-13.0959031447565,-13.4203628146816,6.97361127243606,-5.96213825215632,-44.5528413040173,3.07747203433284,65.7522321311701,-14.0156337007502,-5.58685178209218,-21.3946285966991
9.05507018176429,-13.0995687110885,-13.4020285913523,6.9850166321079,-6.07169682347887,-44.3788018056471,3.0519219736026,66.3393665860018,-13.49341394994,-4.9127325659355,-21.8933199859256
9.90442847254501,-13.101036348325,-13.3813325098641,6.99699368573678,-6.18980478236283,-44.1939806919162,3.01739657677736,66.9780796528452,-12.9480165120739,-4.25659385793469,-22.3653910703107
10.7730779050126,-13.1001463468642,-13.3584095226758,7.00931947418756,-6.31584021170934,-43.9970259975151,2.97324047109893,67.668327671205,-12.3763215911033,-3.61951856839234,-22.8114212694022
11.6561976773264,-13.0967586769954,-13.3333967241261,7.02173296275324,-6.44907772425662,-43.7865324474806,2.91891418475536,68.4097348817133,-11.7753209106636,-3.0028151761743,-23.2319457503163
12.5487738935481,-13.0907608611781,-13.3064289730624,7.03393452751457,-6.58868352691,-43.5610528745401,2.85401756205791,69.2015981609573,-11.1422015678157,-2.40801552097535,-23.6274245301318
13.4456385226422,-13.082075429416,-13.2776343880285,7.04558618193867,-6.73371211335089,-43.3191107274745,2.77831121622319,70.0428955713252,-10.4744289746319,-1.83685760323024,-23.9982208661469
14.3415121954622,-13.0706666809855,-13.2471297918936,7.05631258202829,-6.88310502064853,-43.0592136025301,2.69173539187334,70.9322982883356,-9.76982681224975,-1.29125500055556,-24.3445876542776
15.2310497871329,-13.0565464933952,-13.2150161866736,7.06570283235889,-7.03569205537349,-42.7798677134483,2.59442564490937,71.8681853999718,-9.02665188704742,-0.77325482445935,-24.6666604399323
16.1088878480947,-13.0397789449106,-13.1813743420389,7.07331309774287,-7.19019534030281,-42.479593193279,2.48672479251865,72.8486610150418,-8.24366179217114,-0.284986429968609,-24.9644556391757
16.9696930334323,-13.0204835490105,-13.1462605832227,7.07867000626786,-7.34523645125254,-42.1569400944696,2.36919065008521,73.8715730697782,-7.42017335339571,0.171396639929105,-25.2378726681618
17.8082107489508,-12.9988369371086,-13.1097028654732,7.08127480919757,-7.49934680246654,-41.8105049283498,2.24259916204961,74.9345331862718,-6.55610998900219,0.593778767084962,-25.4866988915312
18.6193132915458,-12.9750728695796,-13.0716972216706,7.08060824237805,-7.65098129972868,-41.4389475665859,2.10794265039434,76.0349369175819,-5.65203634589521,0.980145569856278,-25.710616621477
19.3980468156903,-12.9494805043387,-13.0322046658717,7.07613601362624,-7.79853512070106,-41.0410083166158,1.96642303949387,77.1699837174655,-4.70917888459629,1.32864551767228,-25.9092118098646
20.1396765103767,-12.9224009061584,-12.9911486278114,7.06731482285735,-7.94036331614094,-40.6155249769395,1.81944005806654,78.3366960045191,-3.72943146116189,1.63764706821583,-26.0819845421207
20.839729423397,-12.894221836732,-12.9484129826501,7.05359880813522,-8.07480277171448,-40.1614496722336,1.66857455864787,79.5319367646319,-2.71534538038408,1.90578883274638,-26.2283619042082
21.4940344233855,-12.8653709225309,-12.9038407282493,7.03444630217466,-8.20019594497934,-39.6778652610015,1.51556722809564,80.7524252703083,-1.67010386214921,2.1320206908449,-26.3477141617315
22.0987588450037,-12.8363073518958,-12.8572333504592,7.00932677955477,-8.3149157067768,-39.1640011008822,1.36229308682298,81.9947507004381,-0.597481361682791,2.31563426287782,-26.4393753777413
22.6504414190633,-12.8075123020569,-12.8083509056218,6.97772787405605,-8.41739057492934,-38.6192479502176,1.21073228607459,83.2553837079291,0.498211305718077,2.45628172307686,-26.5026695822853
23.1460211471194,-12.7794783391918,-12.7569128379267,6.93916234718701,-8.50612962842253,-38.0431717798788,1.06293780935671,84.5306862734576,1.61219459570165,2.55398266024558,-26.536943404791
23.5828618387931,-12.7526980696515,-12.7025995362783,6.8931748918242,-8.57974642437432,-37.4355262678213,0.921000767705226,85.8169204619275,2.73929874700546,2.60911951952326,-26.5416056456839
23.9587720894367,-12.7276523486457,-12.6450546202337,6.83934865715905,-8.63698129911138,-36.7962637528474,0.787014049768886,87.1102569292476,3.874050947314,2.6224229232372,-26.5161735315272
24.272020535306,-12.7047983743078,-12.5838879275199,6.77731138182906,-8.676721512586,-36.125544435947,0.663035142713312,88.4067841856785,5.01076867215479,2.59494875321293,-26.4603244158792
24.5213462827062,-12.6845580092738,-12.5186791576099,6.70674102222989,-8.69801878827883,-35.423743637034,0.551048972377627,89.7025196911355,6.1436565672273,2.52804925048496,-26.3739506244762
24.7059644662026,-12.6673066767398,-12.4489821084655,6.62737076498505,-8.70010390403383,-34.6914569373204,0.452931617162352,90.9934238253449,7.26690419769607,2.42334051270306,-26.257214186163
24.8255669484849,-12.6533631712838,-12.3743294293009,6.53899331847711,-8.68239809665569,-33.9295030562514,0.370415729941546,92.2754176347585,8.37478204097829,2.28266859431453,-26.110597505034
24.8803182304242,-12.642980705305,-12.294237803273,6.44146438904338,-8.64452114686696,-33.1389243234023,0.305058457739158,93.5444050105977,9.46173324735072,2.10807596244213,-25.9349457673384
24.870846693844,-12.6363394808636,-12.2082134693968,6.33470526253087,-8.58629610373387,-32.3209846143462,0.258212581960963,94.7962996145137,10.5224589225127,1.90176944634158,-25.731497150476
24.798231351116,-12.6335410371762,-12.115757988485,6.21870443052138,-8.50775068479705,-31.4771646348559,0.231001515614965,96.027056473492,11.5519949832121,1.66609018669874,-25.5018977201235
24.6639843244823,-12.6346045783149,-12.0163741510646,6.0935182223873,-8.40911545147918,-30.6091544671684,0.224298692087905,97.2327077589632,12.5457789914654,1.40348556049574,-25.2481991420085
24.470029323567,-12.639465433175,-11.9095719188853,5.9592704291294,-8.29081891323846,-29.7188433361736,0.238711765870327,98.4094018912286,13.4997057759376,1.11648269266097,-24.9728387755238
24.2186764314426,-12.6479757385986,-11.7948742912588,5.81615093032387,-8.15347975995761,-28.8083066088106,0.274571924086043,99.5534448033566,14.4101710842006,0.807662992706955,-24.6786031209963
23.9125935474324,-12.6599073658707,-11.6718229964812,5.66441335723167,-7.99789645870873,-27.8797901026912,0.331928487813631,100.661341980833,15.2741029531606,0.479637179971543,-24.3685767842328
23.554774868104,-12.6749570326878,-11.5399839270359,5.50437184047248,-7.82503447952635,-26.935691845948,0.410548870591789,101.729839778912,16.088980911882,0.135020468054865,-24.0460799999402
23.1485068162021,-12.6927534622942,-11.3989522626371,5.33639690117001,-7.63601144102913,-25.9785414945366,0.509923855106867,102.755964515877,16.8528435167853,-0.223592092614175,-23.7145982716856
22.697331850148,-12.7128663760154,-11.2483572527642,5.16091055463462,-7.43208049420729,-25.0109776711017,0.629278040826822,103.737057940652,17.5642850412584,-0.593649764005925,-23.377707831027
22.2050106037823,-12.7348170425845,-11.0878666530515,4.97838070908934,-7.21461228648063,-24.0357235399064,0.7675852059503,104.6708078539,18.2224423873281,-0.972669137027087,-23.039000425577
21.6754828168757,-12.7580900636426,-10.9171908201381,4.78931495905639,-6.98507585970924,-23.0555609776937,0.923588223983222,105.555272891369,18.8269734597391,-1.35825525260806,-22.7020104911521
21.1128275212787,-12.7821460519181,-10.7360864637523,4.59425389197784,-6.74501883157693,-22.0733037426202,1.09582308336141,106.388900730741,19.3780283556715,-1.74812007024778,-22.3701471504152
20.521222945203,-12.806434854411,-10.5443600364121,4.39376404517423,-6.49604719207753,-21.0917700801757,1.28264647672989,107.170539243616,19.8762147848025,-2.14009765405914,-22.0466328138499
19.9049065889319,-12.8304089819116,-10.3418707186167,4.18843066593058,-6.23980501934293,-20.1137552312659,1.48226635436502,107.899440374506,20.3225591428339,-2.53215566728273,-21.7344495201954
19.2681359093022,-12.8535369224018,-10.1285329387532,3.97885043781251,-5.97795438572799,-19.1420043202352,1.69277477733264,108.575256784117,20.7184646120625,-2.92240305284873,-21.4362935960504
18.6151500278183,-12.8753160343958,-9.90431835670805,3.76562433918858,-5.71215569200546,-18.1791860995941,1.91218236348341,109.198031540041,21.0656675547826,-3.3090940941597,-21.1545387711992
17.9501328487134,-12.8952847340674,-9.66925723990632,3.54935079436755,-5.44404864111684,-17.2278680139799,2.13845359172184,109.768181365568,21.3661933064064,-3.69062935459338,-20.8912075763006
17.2771779393554,-12.9130337065236,-9.42343917051903,3.33061926357441,-5.17523404581032,-16.2904930162635,2.3695422129696,110.286474152324,21.6223122789778,-4.06555424737591,-20.6479506794453
16.6002554870811,-12.9282158888329,-9.16701304234777,3.11000439566236,-4.90725665536993,-15.3693585212927,2.60342600871673,110.754001591307,21.8364970700207,-4.43255615765403,-20.4260337815864
15.923181605085,-12.9405549937296,-8.90018633296123,2.88806083839894,-4.64158918269817,-14.466597819311,2.83814014415413,111.172147874188,22.0113810557523,-4.79046109827519,-20.2263317634402
15.249590216944,-12.9498523714575,-8.62322366507472,2.66531876810918,-4.37961771031113,-13.5841641968913,3.07180838916561,111.542555462453,22.1497187525188,-5.13823081391663,-20.0493299099413
14.5829077065527,-12.9559920452393,-8.33644469256872,2.44228016720568,-4.12262864664036,-12.7238179330094,3.30267153061207,111.867088917013,22.2543480784233,-5.47496106992962,-19.8951321720196
13.9263304797438,-12.9589438041891,-8.04022135531486,2.21941584860472,-3.87179738659561,-11.8871162557472,3.52911237223714,112.147797728216,22.3281545577277,-5.79988162648419,-19.7634765085712
13.2828055478889,-12.9587642943287,-7.73497454523093,1.99716320248721,-3.62817879960071,-11.0754062663408,3.74967681105403,112.386878995381,22.3740374899971,-6.11235817220273,-19.6537573542236
12.6550142145338,-12.9555961083475,-7.42117022194729,1.77592462295569,-3.39269962698883,-10.2898207675928,3.96309058982293,112.586640693078,22.3948781413628,-6.41189631146041,-19.5650551657494
12.0453589256084,-12.9496649297071,-7.09931501704225,1.55606655832563,-3.16615282907007,-9.53127687786731,4.16827145407503,112.749466148866,22.3935100814016,-6.69814755678872,-19.4961728054046
11.4559533334029,-12.9412748300452,-6.76995137184942,1.33791911837085,-2.94919389404618,-8.80047727349504,4.36433658687476,112.877780260859,22.3726918616335,-6.97091714362106,-19.4456782321115
10.8886156247858,-12.9308018501237,-6.43365226252204,1.12177616552875,-2.7423391126426,-8.09791388200366,4.55060534828823,112.974017909746,22.3350822914998,-7.23017334222851,-19.4119526231909
10.3448651740199,-12.9186860188256,-6.09101557551265,0.907895816342446,-2.54596582689385,-7.42387384127767,4.72659749803441,113.040594962074,22.2832185971941,-7.47605778863171,-19.393242687494
9.82592259696786,-12.9054219868526,-5.74265820700026,0.696501285035082,-2.36031466492519,-6.7784475360856,4.8920272163959,113.079882205499,22.2194977332353,-7.70889618982603,-19.3877156045862
9.33271330095294,-12.8915484733788,-5.38920997020918,0.48778201133657,-2.18549376491939,-6.16153851549355,5.04679335018846,113.094182489027,22.1461610519332,-7.92920857347954,-19.3935147758581
8.86587463491004,-12.8776367451903,-5.03130740174989,0.281895025546459,-2.0214849655577,-5.57287508132172,5.19096639200869,113.085711256106,22.065282430197,-8.13771805720879,-19.4088144279555
8.42576673730457,-12.8642783693119,-4.66958755999383,0.0789665122372642,-1.86815189477253,-5.01202332223669,5.32477274995716,113.056580558725,21.9787598235393,-8.3353569483187,-19.4318710773636
8.01248714297708,-12.8520725005209,-4.3046819080606,-0.120906459459354,-1.72524982571105,-4.47840135215755,5.44857688125968,113.008786536108,21.8883100849366,-8.52326891677575,-19.4610699563257
7.62588913373133,-12.8416129800216,-3.9372103769788,-0.317654063853913,-1.59243709895024,-3.97129449495539,5.56286185046658,112.944200245328,21.7954667715082,-8.7028060671171,-19.4949647246177
7.2656036937886,-12.833475526327,-3.56777571334104,-0.511231721837488,-1.46928784883477,-3.48987114051547,5.66820884290838,112.864561653673,21.7015805766634,-8.87551997662015,-19.5323091402921
6.93106475954606,-12.8282052928717,-3.1969582265311,-0.701617989846851,-1.35530572992316,-3.03319898348039,5.76527613300707,112.771476546499,21.607821971689,-9.04314611956242,-19.5720797932296
6.62153724222994,-12.8263050513343,-2.82531105567866,-0.888812342718551,-1.24993831766613,-2.6002613503615,5.85477798428151,112.66641606395,21.5151856184751,-9.20758148672298,-19.6134894589195
6.33614707168568,-12.828224239229,-2.45335606882904,-1.07283285786235,-1.15259184992735,-2.18997332728317,5.93746394029609,112.550718547153,21.4244961278203,-9.37085557663776,-19.6559910603673
6.0739122891888,-12.8343490898823,-2.08158048395456,-1.25371380740093,-1.06264597606358,-1.80119742066823,6.01409894527772,112.425593345406,21.3364147905252,-9.53509525565105,-19.6992726120082
5.83377404227701,-12.8449940457095,-1.7104342664408,-1.43150316404627,-0.979468184347946,-1.43275851544696,6.0854447065775,112.292126214013,21.2514470001494,-9.70248425677024,-19.7432438520246
5.61462624038718,-12.8603946411284,-1.34032831727461,-1.60626002704396,-0.902427587707123,-1.08345793747755,6.15224267957496,112.151285927006,21.1699502037714,-9.87521832100502,-19.788015541743
5.41534264399229,-12.8807020260786,-0.971633427848824,-1.77805197745761,-0.830907765548422,-0.752086475469213,6.21519901692363,112.003931747258,21.0921423350693,-10.0554571872796,-19.8338726195772
5.23480029508147,-12.9059792816502,-0.604679946634673,-1.9469523779352,-0.764318388127029,-0.437436268503369,6.27497177304135,111.850821437533,21.0181107731257,-10.2452748066361,-19.8812425410126
5.07189844801438,-12.9361996526988,-0.239758082693428,-2.11303764131152,-0.702105390573713,-0.138311513406929,6.33216058848696,111.692619550562,20.9478219113459,-10.4466092773585,-19.9306602112376
4.92557250339303,-12.9712467844149,0.122881237493692,-2.27638450316825,-0.64375951797146,0.146462013142396,6.38729899687459,111.529905792223,20.8811314153831,-10.6612140486659,-19.9827309206861
4.79480284529018,-13.0109169974618,0.48302504007791,-2.43706734123302,-0.588823131225507,0.418028593046912,6.44084939850196,111.363183300847,20.8177952160985,-10.8906119118498,-20.0380926335159
4.67861888730128,-13.0549235714289,0.840496569846551,-2.59515558660278,-0.536895241618966,0.677495320937886,6.49320063157792,111.192886725378,20.7574812437045,-11.1360531960156,-20.097378871128
4.57609899797421,-13.102902936724,1.195153210548,-2.75071127159296,-0.487634819983221,0.925925913623041,6.54466795176227,111.019390017011,20.6997818696186,-11.3984794258674,-20.1611832925319
4.48636725992374,-13.1544226099883,1.54688411530814,-2.90378676251699,-0.440762492672005,1.16433549777442,6.59549511559965,110.843013873655,20.6442269783385,-11.6784934950906,-20.2300269091861
4.40858818967621,-13.2089906534342,1.89560760999851,-3.05442273473896,-0.396060783370679,1.39368628015793,6.64585816450079,110.664032794386,20.5902975399969,-11.9763371728167,-20.3043286894338
4.34196059234611,-13.26606639482,2.24126844431504,-3.20264645780784,-0.353373086435627,1.61488398818973,6.69587043237886,110.482681713687,20.5374395032666,-12.2918765055178,-20.3843801177139
4.28571164819858,-13.3250721102314,2.58383497490107,-3.34847046396696,-0.312601567315421,1.82877495949637,6.74558825897013,110.299162196561,20.4850777875393,-12.6245954160087,-20.4703240940088
4.23909214392721,-13.385405345432,2.92329636741735,-3.49189166907356,-0.273704181634045,2.03614375981198,6.79501688603553,110.113648188079,20.4326301191022,-12.9735975452859,-20.562138405243
4.20137349941285,-13.4464515344821,3.25965990010317,-3.63289099977073,-0.236690988274143,2.23771121809316,6.84411604653446,109.926291324256,20.3795204150146,-13.3376161404915,-20.6596238776369
4.17184693786892,-13.5075965689536,3.59294844391787,-3.77143355707836,-0.201619906088647,2.43413278474084,6.89280482861805,109.73722582485,20.3251913675044,-13.7150315771795,-20.7623972239921
4.1498248425253,-13.5682389776158,3.92319818683722,-3.90746931841653,-0.168592036067023,2.62599714385072,6.94096550465948,109.546573002511,20.26911583742,-14.1038959318647,-20.8698885291468
4.13464407117664,-13.6278013903959,4.25045666010109,-4.04093435057377,-0.13774665343982,2.81382504611451,6.98844615078126,109.354445432036,20.2108066502772,-14.501963893451,-20.9813432673531
4.12567078691074,-13.68574097777,4.57478110769305,-4.17175247871564,-0.109255977375793,2.99806837551196,7.03506203203533,109.160950819681,20.1498244159836,-14.9067292007928,-21.0958287041268
4.12230622336122,-13.7415585834202,4.89623721853593,-4.2998373370034,-0.083319844477119,3.17910951168552,7.08059588490768,108.966195592056,20.0857830660683,-15.3154656914669,-21.2122444740456
4.12399273825996,-13.7948063161465,5.21489822065705,-4.42509471958946,-0.0601604275215256,3.35726108644454,7.12479738426257,108.770288195164,20.0183529166886,-15.7252719276643,-21.3293370164881
4.13021951247561,-13.8450934387977,5.53084432076143,-4.54742515520177,-0.0400171399972445,3.53276624866502,7.16738221743243,108.573342069879,19.9472612107165,-16.1331182353994,-21.4457173905808
4.14052730940702,-13.8920904747164,5.84416245842247,-4.66672663729006,-0.0231418527803803,3.70579954907209,7.20803127637717,108.375478259061,19.8722902473677,-16.5358948819188,-21.5598818116937
4.15451180539861,-13.9355315307406,6.1549463301195,-4.7828974476603,-0.009794529282076,3.87646854188266,7.24639049700584,108.176827603226,19.7932733474775,-16.9304600608129,-21.6702341063613
4.17182512039948,-13.9752149029432,6.46329662710564,-4.89583901044874,-0.00023936115663775,4.04481618073205,7.28207181593046,107.977532490137,19.7100890043987,-17.3136863823,-21.7751092157401
