Finger Velocity,Scap_X,Scap_Y,Scap_Z,Shoulder horiz abd-adduction,Shoulder flexion-extension,Shoulder internal-external rotation,elbow flexion-extension,forearm pronation-supination,wrist flexion-extension,wrist radial-ulnar deviation
2.31273434952504,-14.1803069068527,-13.3235537087165,6.65045971518189,-3.05061907408188,-47.1948378945121,3.19007325627415,62.455715487074,-17.1081082406167,-8.34773638170359,-16.6291560842849
2.88667188177624,-14.2442153517524,-13.3401939955263,6.62197419892412,-2.7942673167965,-47.0556503888844,3.34444654684776,62.6205611791636,-16.3682112021061,-7.26175708479604,-17.6056487215418
3.52574527398587,-14.3009868645138,-13.3610827897093,6.59538397577698,-2.55685531215894,-46.8991650162335,3.48582517886449,62.8290628612019,-15.5989782237475,-6.20446869373644,-18.5471112813815
4.22326276997387,-14.350247588119,-13.3855657638359,6.57065302631714,-2.3402092441118,-46.7252004629683,3.61325654768283,63.0830893161868,-14.8024406057167,-5.18639893387538,-19.4439962462355
4.97363101137403,-14.3917104356869,-13.4129313934679,6.54770015473183,-2.14582427098174,-46.5336162385901,3.72606592853106,63.3841723544827,-13.9807582744287,-4.21620400784965,-20.2887202926332
5.77159569190522,-14.4251768730926,-13.4424265974849,6.52640117184618,-1.97485106109554,-46.3242961101368,3.82385854384416,63.7334927755733,-13.136190556444,-3.30061423824627,-21.0756827990265
6.61186633988025,-14.4505375176707,-13.4732721923661,6.50659143044808,-1.82809096555733,-46.0971329076755,3.90651315963367,64.1318717852273,-12.2710671616522,-2.44448628980817,-21.8011749990933
7.48893812309181,-14.4677715776419,-13.5046777181903,6.48806860253086,-1.70599920767901,-45.852015380991,3.97416800548744,64.5797676920043,-11.3877603802089,-1.65093574766916,-22.4632077507643
8.39701921134137,-14.4769451690943,-13.5358552559139,6.47059561396755,-1.60869524247052,-45.5888176153225,4.0272000551497,65.0772775929722,-10.4886594511269,-0.921522692866048,-23.0612870859567
9.3300181005135,-14.4782085599587,-13.5660319236781,6.45390367619907,-1.53597929510184,-45.3073913391316,4.06619887097445,65.6241436767154,-9.57614792914826,-0.256465213509259,-23.5961643427784
10.281567078944,-14.4717924014509,-13.5944608132353,6.43769537723431,-1.48735402082461,-45.0075612896566,4.09193631158257,66.2197637289949,-8.65258466088287,0.345139743611464,-24.0695830707997
11.2450685935322,-14.4580030157224,-13.6204302042602,6.42164781621215,-1.46205022754881,-44.6891236495147,4.10533343697959,66.8632054156666,-7.72028870004188,0.885103349716237,-24.4840392861167
12.2137565779556,-14.4372168134424,-13.6432709721308,6.40541578678185,-1.45905564774717,-44.3518474342973,4.10742592914314,67.5532239236001,-6.78152818107308,1.36594946690842,-24.8425660045169
13.1807675594656,-14.4098739176733,-13.6623621808305,6.38863503331859,-1.47714582028529,-43.9954785994896,4.09932928728272,68.2882825492297,-5.83851287295033,1.79074189090319,-25.1485479368835
14.1392178439014,-14.3764710733166,-13.6771349223429,6.37092561725505,-1.51491622907375,-43.6197465479423,4.08220496372339,69.0665758270893,-4.89338988547417,2.16293572309802,-25.4055681689677
15.0822839128379,-14.3375539272709,-13.6870745219544,6.35189543422327,-1.57081493199134,-43.2243726602128,4.05722848579846,69.8860547836819,-3.94824182177008,2.48625190939293,-25.6172857427745
16.0032836650547,-14.2937087736543,-13.6917212727824,6.33114391392046,-1.6431749948396,-42.8090804397922,4.02556046538007,70.744453886488,-3.00508657400874,2.76457263876182,-25.7873412686588
16.8957564592615,-14.2455538685311,-13.6906698952493,6.30826591566418,-1.73024612228078,-42.373606856449,3.98832123340145,71.6393192384878,-2.06587794588166,3.00185473131524,-25.9192867822912
17.753540152889,-14.1937304265736,-13.6835679433335,6.28285580922826,-1.8302249541163,-41.9177144720577,3.94656965804975,72.5680375517671,-1.13250634791016,3.20205803354222,-26.0165357119063
18.5708435298047,-14.1388934174652,-13.6701134019082,6.25451170909435,-1.94128357150558,-41.4412039372801,3.90128652259152,73.5278654264865,-0.206798938013189,3.36908598153726,-26.0823288340947
19.342312693684,-14.0817022847801,-13.6500517356062,6.22283981413175,-2.06159583113346,-40.9439264565697,3.85336266042289,74.5159584689864,0.709481247923967,3.50673582612737,-26.1197123862935
20.0630901871071,-14.0228117169789,-13.6231726531081,6.18745879280627,-2.18936121350669,-40.4257958399963,3.8035918726037,75.5293998060638,1.61463743791147,3.61865649516921,-26.1315250241411
20.7288657859678,-13.962862609591,-13.58930683593,6.14800414256598,-2.32282593467474,-39.8867997973205,3.7526684867463,76.5652275873459,2.50704261534886,3.70831264155675,-26.1203910070386
21.3359181170707,-13.9024733684091,-13.5483228460274,6.10413243857729,-2.46030112987304,-39.3270101820936,3.70118926124488,77.6204611061317,3.38514428232006,3.77895403029694,-26.0887177894446
21.8811464538874,-13.8422317133416,-13.500124374667,6.05552537296823,-2.60017797352891,-38.7465919580267,3.64965920410318,78.6921252011218,4.24747030703613,3.83358997716668,-26.0386969814724
22.3620922598344,-13.7826871482223,-13.44464793382,6.00189347645381,-2.74093965465386,-38.1458107287547,3.59850076350477,79.7772726205244,5.0926356092319,3.87496895834475,-25.9723082936111
22.7769502675781,-13.7243442598746,-13.3818610333848,5.94297941602241,-2.8811701841483,-37.5250387314993,3.54806575157893,80.8730040399386,5.91934942156941,3.90556365277973,-25.8913264806074
23.1245691036233,-13.6676569983816,-13.3117608450439,5.87856077811721,-3.01956007375321,-36.8847592321812,3.49864927808561,81.9764854406021,6.72642287107926,3.92756150663152,-25.7973313911633
23.4044416862425,-13.6130240712085,-13.2343733290828,5.80845227246674,-3.15490899256717,-36.2255692747689,3.45050490305622,83.0849625912379,7.51277663193987,3.94286049900827,-25.6917210651448
23.6166858378525,-13.5607855595874,-13.1497527850872,5.73250731930372,-3.28612557104867,-35.5481807456736,3.40386018222812,84.1957724450104,8.27744839728017,3.95306932389054,-25.5757275492704
23.7620157563132,-13.5112208385941,-13.0579817702607,5.65061900670649,-3.41222458296028,-34.8534197290548,3.35893178750199,85.3063513642236,9.01959989794464,3.95951086688004,-25.4504348857568
23.8417051792758,-13.4645478530042,-12.9591713068467,5.56272042490519,-3.53232179458306,-34.1422241532672,3.31593943622064,86.4142402105696,9.73852316292533,3.96322773474517,-25.316798645838
23.8575432475791,-13.4209237690743,-12.8534612764915,5.46878440239036,-3.64562682576171,-33.4156397567469,3.27511795170976,87.5170864714059,10.4336456806824,3.96498867844157,-25.1756664178227
23.8117842237222,-13.3804469877385,-12.7410208798349,5.36882268578527,-3.75143441180082,-32.6748144288168,3.23672689798985,88.6126437154941,11.1045340961363,3.96529498681938,-25.0277987640202
23.7070923455791,-13.3431604673316,-12.6220490282118,5.26288462193367,-3.84911448304679,-31.9209910061453,3.20105737809346,89.6987687742189,11.7508960721159,3.96438627939512,-24.8738902849561
23.546483189836,-13.3090562641887,-12.4967745325485,5.15105541554132,-3.93810149070381,-31.1554986300943,3.16843574856197,90.7734171245627,12.372579958683,3.96224555036622,-24.7145905283234
23.3332629803828,-13.2780811590959,-12.3654559607416,5.03345404719038,-4.01788340809386,-30.3797427960949,3.13922417125044,91.8346370109368,12.9695719525463,3.95860374569768,-24.5505245065252
23.0709673006712,-13.2501431995655,-12.2283810456904,4.91023094328074,-4.08799083110584,-29.5951942543091,3.1138180877426,92.8805628861311,13.5419904987054,3.95294452224811,-24.3823125160118
22.7633006529992,-13.2251189546987,-12.0858655395437,4.78156549112446,-4.14798659193303,-28.8033769490769,3.09264085249053,93.9094087748309,14.0900777913021,3.94451010387094,-24.21058880249
22.414078249757,-13.2028612513165,-11.9382514261423,4.64766348923383,-4.19745628505679,-28.0058552095826,3.07613588891145,94.9194621608999,14.6141883641144,3.93230930417562,-24.0360184372827
22.0271713208985,-13.1832071363871,-11.7859044248322,4.50875461493264,-4.23600007985888,-27.2042204234736,3.06475683234875,95.9090789641006,15.1147749088495,3.91512883563101,-23.8593116194905
21.6064570788244,-13.1659857920334,-11.6292107459339,4.36508997877816,-4.26322615540438,-26.4000774371394,3.05895619637847,96.8766800946764,15.5923716087357,3.89154898471426,-23.6812345454141
21.1557742987305,-13.1510261181689,-11.4685730912507,4.21693981799755,-4.27874603745957,-25.595030928651,3.05917314806537,97.8207499532175,16.0475754223167,3.85996461210982,-23.5026160180606
20.6788852536208,-13.1381636981975,-11.3044059303041,4.06459135984636,-4.28217204855516,-24.7906719916859,3.06582100119993,98.7398370904667,16.4810258985533,3.81861223012212,-23.3243491100234
20.17944449513,-13.1272468793851,-11.1371301203468,3.90834686213296,-4.27311700581108,-23.9885651559986,3.07927502700051,99.6325570805922,16.8933842421243,3.76560360478546,-23.1473874316992
19.6609747027019,-13.1181417336059,-10.9671669712926,3.74852181491389,-4.2511962249386,-23.1902360574468,3.09986113614189,100.497597514178,17.2853124588147,3.69896592767422,-22.9727358684167
19.1268495451399,-13.1107357150971,-10.7949318843921,3.58544326825509,-4.21603181545996,-22.3971599560467,3.12784591057658,101.333724894813,17.6574534758593,3.61668812814607,-22.801435996625
18.5802832220993,-13.1049398956172,-10.6208277172514,3.41944823897635,-4.16725918134557,-21.6107512762529,3.16342837120767,102.139793125321,18.010413141192,3.51677240388539,-22.6345467323686
18.0243260914712,-13.1006897283352,-10.4452380475972,3.25088214484619,-4.10453557160075,-20.8323543056214,3.20673377193186,102.914753190932,18.3447449575582,3.39728960097126,-22.4731210777685
17.4618655544107,-13.0979443640487,-10.2685205214674,3.08009721612917,-4.02755045676884,-20.0632351397846,3.25780962044654,103.657663584031,18.6609383036187,3.25643672794155,-22.318180094087
16.8956311744796,-13.0966846120345,-10.091000476974,2.90745084030317,-3.93603744139197,-19.304574910534,3.31662403983975,104.367700972704,18.959410735753,3.0925946703118,-22.1706854221967
16.3282028605459,-13.0969096988828,-9.91296503359347,2.73330380487897,-3.82978736176815,-18.5574642877552,3.38306649549963,105.044170601556,19.2405047570446,2.90438408906077,-22.0315117732213
15.7620208515955,-13.0986330283923,-9.73465782887575,2.55801841235166,-3.70866216596605,-17.8228992127133,3.45695081791726,105.686515933413,19.5044891981097,2.69071753372331,-21.9014208160546
15.1993962093849,-13.1018771826139,-9.5562745670406,2.38195644583497,-3.57260913011935,-17.1017778038631,3.53802035916596,106.294327089225,19.7515650968028,2.45084596557214,-21.781037797585
14.6425205528634,-13.1066684307048,-9.37795951688225,2.20547696244216,-3.42167492864748,-16.3948983735338,3.62595503489,106.867347708423,19.9818757082294,2.18439814202909,-21.6708320528227
14.0934738550334,-13.1130310314385,-9.19980306342472,2.02893388843534,-3.25601904329849,-15.7029584963242,3.72037992676001,107.405479922655,20.1955200398059,1.89141161543606,-21.5711023097997
13.5542292652451,-13.1209816260835,-9.02184038307596,1.85267339183361,-3.07592597005008,-15.0265550712637,3.82087505330667,107.908787209567,20.3925691055065,1.57235439637287,-21.4819673958452
13.0266541139959,-13.1305240159148,-8.84405127863971,1.67703101604615,-2.8818156728134,-14.3661853160435,3.92698586220833,108.377494971049,20.5730839441178,1.22813658496385,-21.4033626457708
12.5125064995246,-13.1416445984446,-8.66636118164254,1.50232856921056,-2.67425174748314,-13.7222486201876,4.0382339595255,108.811988759399,20.7371343598395,0.860111473831481,-21.335042034771
12.0134271429741,-13.1543086985518,-8.48864330652201,1.32887077767389,-2.45394680529323,-13.0950491655212,4.15412757616548,109.21281015055,20.8848173258852,0.470065797018494,-21.2765858316348
11.5309265292365,-13.1684579791453,-8.31072192052897,1.1569417326067,-2.22176466183075,-12.4847992053395,4.27417128328662,109.580650333658,21.0162740393281,0.0601989804326934,-21.227413396439
11.0663677205064,-13.1840090563475,-8.13237666781768,0.986801188950622,-1.97871902102906,-11.8916228926823,4.3978745113293,109.916341549709,21.1317047184682,-0.366908525113026,-21.1868006242578
10.6209456322636,-13.2008533808995,-7.9533478526555,0.818680812666637,-1.72596846172917,-11.3155605717271,4.52475850464529,110.220846564687,21.2313803858764,-0.80833746386331,-21.1539014471357
10.1956639828459,-13.2188583832712,-7.77334254748568,0.652780508827543,-1.46480766173769,-10.7565734885815,4.65436145081133,110.495246401564,21.3156510786376,-1.26088184896836,-21.1277727316398
9.79131154253085,-13.2378698170739,-7.59204135220982,0.489264992766026,-1.19665492935523,-10.2145489216638,4.78624165117139,110.740726579611,21.384950167101,-1.72110982602107,-21.1074018341567
9.40843967604161,-13.2577151768919,-7.40910559744964,0.32826078381632,-0.923036252700657,-9.68930575971108,4.91997873788523,110.958562121871,21.4397947308579,-2.18543189810098,-21.0917359942556
9.04734343871273,-13.2782080159282,-7.22418476328672,0.169853803477267,-0.645566216350538,-9.18060055552624,5.05517308344834,111.150101597628,21.4807822080659,-2.650174755543,-21.0797126572692
8.7080485862802,-13.29915294893,-7.03692388198733,0.0140877476980181,-0.365926263492622,-8.68813405273164,5.19144367865121,111.316750473611,21.5085837649583,-3.11165868684644,-21.0702897272028
8.3903067279944,-13.3203510990503,-6.84697070920446,-0.139036621973541,-0.0858408898242325,-8.21155812894646,5.32842485984004,111.45995405774,21.5239350003644,-3.56627635640365,-21.0624746801777
8.09360044787262,-13.3416057338618,-6.65398247659539,-0.289561160584335,0.192947565131173,-7.75048303938347,5.46576233416797,111.581180327309,21.5276247010117,-4.0105706281566,-21.0553514483416
7.81715953306242,-13.3627278332028,-6.45763207068534,-0.437568934319631,0.468704815693558,-7.30448479785302,5.60310897408166,111.681902933242,21.5204824029079,-4.44130910123799,-21.0481040394412
7.55998852835296,-13.383541337321,-6.25761351284754,-0.583181717930072,0.739730485756692,-6.87311250638621,5.74012082542069,111.763584660959,21.503365495622,-4.85555311303165,-21.0400359884515
7.32090478493626,-13.4038878385013,-6.05364664281015,-0.726556436430101,1.00438320467194,-6.45589543847663,5.87645370096415,111.827661606957,21.4771465348523,-5.25071915641073,-21.0305849241424
7.09858513498679,-13.4236305059392,-5.84548093348527,-0.867880640910577,1.26110427021543,-6.05234968816469,6.01176062792361,111.875528298992,21.4427013175234,-5.62463093768083,-21.0193317526316
6.89161845958757,-13.442657072955,-5.63289838694836,-1.00736715600845,1.50843928137524,-5.66198421331245,6.14569030575259,111.908523947596,21.400898141368,-5.97556064838269,-21.0060041989803
6.69856085951951,-13.4608817644563,-5.41571547864398,-1.14524808345662,1.74505724421641,-5.28430612532195,6.27788662777915,111.927919970757,21.3525885323054,-6.30225841460221,-20.9904746996583
6.5179899630489,-13.4782460956235,-5.19378413068984,-1.2817683859561,1.96976676921151,-4.91882510942277,6.4079892310317,111.934908888458,21.2985995809975,-6.60396930189107,-20.9727528932207
6.34855511553096,-13.4947185257651,-4.96699171020975,-1.4171792979544,2.18152909804293,-4.5650568987735,6.53563495805024,111.930594648836,21.2397278796912,-6.88043767552915,-20.9529731976988
6.18902072756106,-13.5102930014553,-4.73526006958448,-1.55173180804465,2.37946781483082,-4.22252577068654,6.66046004353336,111.915984429335,21.1767348937819,-7.1318991258244,-20.9313781718969
6.0383008010478,-13.5249864687236,-4.4985436728074,-1.68567043439055,2.56287520689344,-3.89076608314777,6.78210279093358,111.891981954595,21.1103434575141,-7.35906054330576,-20.9082985170384
5.89548348063052,-13.5388354740374,-4.25682688198881,-1.81922747949096,2.73121533991592,-3.56932292126145,6.90020649225192,111.859382380961,21.0412349793458,-7.56306924967765,-20.8841306747797
5.75984527951142,-13.5518920074732,-4.01012050654674,-1.95261791246299,2.88412399647648,-3.25775196792274,7.01442236769975,111.818868803288,20.970046913264,-7.74547235066475,-20.8593130168047
5.63085532399978,-13.5642187685378,-3.75845774369671,-2.08603498889408,3.02140568818944,-2.95561874076893,7.12441235196207,111.771010431687,20.8973701218575,-7.90816767767282,-20.8343016085055
5.50817050747444,-13.5758840551651,-3.50188966238099,-2.21964667964522,3.14302798558867,-2.66249734698041,7.22985162453108,111.716262465697,20.8237459099429,-8.05334782520947,-20.8095464787364
5.39162283278906,-13.5869564888512,-3.24048040086957,-2.35359294132027,3.2491134201797,-2.37796891021367,7.33043086726565,111.654967674748,20.7496626780333,-8.18343886743457,-20.7854692530195
5.28120046581722,-13.5974997935763,-2.97430225633161,-2.48798382542858,3.33992921244257,-2.10161983214227,7.42585831770927,111.587359685889,20.6755522606794,-8.30103535224939,-20.7624429161721
5.17702414619013,-13.6075678441712,-2.70343084075606,-2.62289839397049,3.4158750807547,-1.83304006532624,7.51586174988022,111.513567976098,20.6017860547213,-8.40883313225975,-20.7407743605098
5.07932062952139,-13.6172001926568,-2.42794046352845,-2.75838438810103,3.47746939399177,-1.57182158581818,7.60019054061467,111.433624553082,20.5286710423845,-8.50956151023019,-20.7206902411809
4.98839478813982,-13.6264182691203,-2.14789988035724,-2.89445858312399,3.52533394260831,-1.31755725538652,7.6786179665942,111.347472276283,20.4564458232686,-8.60591606955813,-20.7023265007302
4.90460188601712,-13.6352224353819,-1.86336852597186,-3.03110775458926,3.56017761573251,-1.06984025091299,7.75094382821635,111.254974719966,20.3852768077793,-8.70049344924506,-20.6857217536891
4.82832137252416,-13.6435900429787,-1.57439333006899,-3.16829017324615,3.58277928258544,-0.828264210126282,7.81699741724353,111.155927423166,20.3152547738647,-8.79572922678745,-20.6708145537846
4.75993330983469,-13.6514746110126,-1.28100620615773,-3.30593753897274,3.593970182536,-0.592424197272043,7.87664074605417,111.050070319902,20.2463920190334,-8.89383999746838,-20.6574444033571
4.69979826301484,-13.6588061960034,-0.983222298465208,-3.44395725599903,3.59461612714649,-0.361918532982511,7.9297718516392,110.937101104534,20.178620342002,-8.99677067154005,-20.6453562013554
4.64824114993687,-13.6654929782968,-0.681039063803163,-3.58223494583057,3.58559980955687,-0.136351468609209,7.97632789171511,110.816689261535,20.1117900769606,-9.10614793125529,-20.6342076670285
4.60553919057154,-13.671424039719,-0.374436244545283,-3.72063709176321,3.56780350400006,0.0846633724161273,8.016287675571,110.688490474817,20.0456703872172,-9.22324068972405,-20.62357913947
4.57191374337171,-13.6764732553322,-0.0633767543977739,-3.85901370956007,3.54209242638619,0.301498908725259,8.04967322788301,110.55216112773,19.979950991872,-9.34892827626717,-20.612985062249
4.54752550927132,-13.6805041700697,0.252191542835646,-3.99720094208577,3.50929902123225,0.514510027311063,8.07654997679922,110.407372606187,19.91424543424,-9.48367693371975,-20.6018864344911
4.532472360646,-13.6833756834196,0.572333220786362,-4.13502348157566,3.47020844121861,0.72402870790601,8.09702519398029,110.253825117844,19.8480959096484,-9.62752503913081,-20.5897035458353
4.52678894431517,-13.6849483277621,0.897121934947885,-4.27229673175592,3.42554548713292,0.930359060064076,8.11124439806051,110.091260737445,19.7809795750644,-9.78007724929194,-20.5758283953381
4.53044722852067,-13.6850909021707,1.22663643590408,-4.40882863266864,3.3759632695454,1.13377251444571,8.11938556495509,109.919475386493,19.7123161813177,-9.94050754381291,-20.5596362946206
4.54335730637537,-13.6836872148285,1.56095607635117,-4.54442108457022,3.32203383329179,1.33450342981572,8.12165116473585,109.738329461157,19.6414768066203,-10.1075709146891,-20.540496246018
4.56536800357253,-13.6806426931633,1.90015594581338,-4.67887092655058,3.26424094892589,1.53274538476525,8.11825825459893,109.547756842056,19.5677934309676,-10.2796232525338,-20.5177797559108
