Finger Velocity,Scap_X,Scap_Y,Scap_Z,Shoulder horiz abd-adduction,Shoulder flexion-extension,Shoulder internal-external rotation,elbow flexion-extension,forearm pronation-supination,wrist flexion-extension,wrist radial-ulnar deviation
2.11542829851297,-8.33402721844507,-16.686025300713,4.31514320792196,-20.4851007250649,-42.4922479660446,-7.09057735800111,60.7558458071814,-24.7329542967213,-13.8623881461131,-14.6277717485466
2.72843275999772,-8.42650160048006,-16.606127932373,4.25233751369585,-20.591455125535,-42.2564974224287,-7.29604550168793,60.8105703067967,-24.0254608278168,-13.3439518492402,-15.2039734829064
3.44925983803317,-8.52383328942322,-16.5183086994983,4.18434646757222,-20.6926044220829,-41.9989323289067,-7.52336531191951,60.9015005337755,-23.2472221790112,-12.7481875386755,-15.8303051101152
4.26282861764023,-8.62585046360913,-16.422211306119,4.1110566784174,-20.7866488523971,-41.7183228159304,-7.77126836090284,61.032783552499,-22.3953001798254,-12.0795981548226,-16.4992762991409
5.15908002663826,-8.73235367988868,-16.3175053553545,4.03237953151879,-20.8716688721524,-41.4134293150996,-8.03811430064844,61.2085460132693,-21.4670063548825,-11.3445352429229,-17.2017566734536
6.13019604936064,-8.84311684346282,-16.2038911165287,3.94825352633582,-20.9457533821611,-41.0830124167093,-8.32191359972083,61.4328559320281,-20.4599558350701,-10.5510449209304,-17.927164486434
7.16917807208553,-8.95788825935973,-16.0811041269791,3.85864650985537,-21.0070280689361,-40.725843822844,-8.62035875679236,61.7096831492042,-19.3721283089387,-9.70863868859598,-18.6637283045333
8.26914309069042,-9.07639179307869,-15.9489194701472,3.76355770008601,-21.0536834165356,-40.3407181898464,-8.93086295462097,62.0428576311315,-18.2019371988395,-8.82799946729617,-19.3988123324195
9.42298176002132,-9.19832816930925,-15.807155568987,3.66301937931163,-21.0840019759846,-39.9264656509583,-9.25060481161982,62.4360245574709,-16.948308332292,-7.92063823573432,-20.1192911493539
10.6232046817729,-9.32337643454781,-15.6556773435846,3.5570981315766,-21.0963845015794,-39.4819648128815,-9.57657764958787,62.8925949950785,-15.6107692028917,-6.99852054458464,-20.811955672214
11.8618923332173,-9.45119560212343,-15.4943985987478,3.44589550729999,-21.0893745826403,-39.0061560293222,-9.9056415389434,63.4156909244597,-14.1895493239104,-6.07368447480716,-21.4639296471437
13.1307057688604,-9.58142648774241,-15.3232835272078,3.32954802230069,-21.0616814156862,-38.4980547710272,-10.2345763194608,64.0080834938023,-12.6856910352387,-5.1578718675292,-22.0630752287997
14.4209350897488,-9.71369373197258,-15.142347236929,3.20822643667945,-21.0122003749364,-37.95676493548,-10.5601338324449,64.6721236622647,-11.1011683389549,-4.26219283365986,-22.5983672655858
15.7235724257305,-9.84760799537199,-14.9516552376213,3.08213430437218,-20.940031049626,-37.3814919709553,-10.8790877386232,65.4096648928468,-9.43900890418772,-3.39683991770208,-23.0602185126404
17.0294011311369,-9.9827683041331,-14.7513218498772,2.9515058283064,-20.8444924300164,-36.7715557297029,-11.1882795248743,66.221978294376,-7.70341142456201,-2.57086336692883,-23.4407416870783
18.3290955044005,-10.118764520267,-14.5415075268448,2.81660309152395,-20.7251349461977,-36.1264030120338,-11.4846596024961,67.1096616048314,-5.89984734051956,-1.79201340736548,-23.7339385440448
19.6133267732324,-10.2551799114505,-14.322415101751,2.67771275784873,-20.581749097614,-35.4456198103361,-11.7653227427998,68.0725446391185,-4.03513308020812,-1.06664993703108,-23.9358105312637
20.8728719141425,-10.3915938024099,-14.0942849968753,2.53514234846014,-20.4143704566612,-34.7289432976319,-12.0275374549101,69.109595236073,-2.11745715313387,-0.399715217634295,-24.0443897615324
22.098722391688,-10.527584301581,-13.8573894534015,2.38921620882501,-20.2232808858582,-33.9762736161585,-12.2687692637122,70.2188312192605,-0.156346477682654,0.205238582877775,-24.0596928793951
23.2821902630418,-10.6627311118746,-13.6120258686203,2.24027128904801,-20.0090058721944,-33.1876855002099,-12.4866981747775,71.3972452587704,1.83744103145506,0.745977539428245,-23.9836038638883
24.4150093800835,-10.7966184484678,-13.3585093583458,2.08865286871401,-19.7723079490134,-32.3634397159409,-12.6792308976112,72.6407505540502,3.85210497817129,1.22148137783677,-23.819694911067
25.4894296790182,-10.9288380917038,-13.0971646986412,1.93471035660966,-19.5141762424578,-31.5039942276706,-12.8445086160547,73.9441556833515,5.8750711399659,1.63181748931398,-23.5729972329065
26.4983028003095,-11.058992591855,-12.8283178403252,1.77879328031621,-19.2358122510585,-30.6100149145219,-12.980911230956,75.3011765236352,7.89332928302337,1.97800368238566,-23.2497357531346
27.4351575412162,-11.1866986152085,-12.5522872285905,1.62124755610395,-18.9386120521433,-29.6823855685,-13.0870590600937,76.7044916449137,9.89381915138423,2.26186791306179,-22.8570430531394
28.2942639140529,-11.3115903865504,-12.2693751959108,1.46241210835487,-18.6241452291459,-28.7222168092249,-13.1618129802778,78.1458449709296,11.8638356987055,2.48591102485227,-22.4026682841027
29.0706848656495,-11.4333231504302,-11.9798597293855,1.30261589542316,-18.2941309215563,-27.7308534570253,-13.2042739453502,79.6161959103385,13.7914205897049,2.65317635206362,-21.8946959611897
29.7603150048456,-11.5515765458134,-11.6839869426719,1.14217538962415,-17.9504115039237,-26.7098798225067,-13.2137827071301,81.1059129479609,15.6657079304698,2.76712819529858,-21.3412876069563
30.3599059809644,-11.6660577684409,-11.3819645991758,0.981392545303339,-17.5949244941315,-25.6611223077928,-13.1899204004715,82.6050023779249,17.4771980184218,2.83153987627839,-20.7504563270962
30.867078451755,-11.776504389757,-11.0739570224083,0.820553269934029,-17.2296733645786,-24.5866486878539,-13.1325104363134,84.1033600933894,19.2179424072937,2.85039141621755,-20.1298809613518
31.2803208683864,-11.8826867170905,-10.7600816820399,0.659926393591658,-16.8566979713648,-23.4887634639529,-13.0416218929586,85.5910317260705,20.8816347473182,2.82777682778746,-19.4867629093247
31.5989755815812,-11.984409612366,-10.4404076666565,0.499763116385214,-16.4780453212099,-22.3699987585612,-12.9175743219922,87.0584653945571,22.4636124886347,2.76782137638185,-18.8277254885646
31.8232130308088,-12.081513722549,-10.1149561630403,0.340296903513549,-16.0957413699015,-21.2331003441456,-12.7609436096798,88.4967420491234,23.9607828427992,2.67460963038291,-18.1587530099386
31.9539950117657,-12.1738761040496,-9.78370296921689,0.181743794031918,-15.7117644991662,-20.0810085569748,-12.5725682793752,89.8977707600839,25.3714913943912,2.55212536715021,-17.485164786838
31.9930282207997,-12.2614102448547,-9.44658297800605,0.0243030916245833,-15.3280212548995,-18.9168340355764,-12.3535554065448,91.2544398777574,26.6953533262809,2.4042042710348,-16.8116180693782
31.9427094437079,-12.3440655063285,-9.10349648044393,-0.131841588538813,-14.9463248482636,-17.7438284372862,-12.1052851621986,92.5607192089864,27.9330659472534,2.23449987872216,-16.1421333824497
31.8060638865018,-12.4218260233682,-8.7543170570052,-0.286520937425207,-14.5683768241474,-16.5653505186433,-11.8294129163031,93.8117125820842,29.0862180500041,2.04646253553554,-15.4801358536542
31.5866782342317,-12.4947091157811,-8.39890075187122,-0.439578253330568,-14.1957521936235,-15.384828205563,-11.5278678315918,95.003663871283,30.1571076018645,1.84333038310665,-14.82850669576
31.2886300687762,-12.5627632741667,-8.03709616418336,-0.590867448496638,-13.8298882116667,-14.2057175119741,-11.2028469666435,96.1339223586349,31.1485752268487,1.62813073009596,-14.189639882528
30.9164152768123,-12.6260657906401,-7.66875504523977,-0.74025078857695,-13.472076859917,-13.0314593701637,-10.8568040816804,97.2008750662288,32.0638574388809,1.40368964686712,-13.5655000595583
30.4748750353502,-12.684720109474,-7.29374296845269,-0.88759640138513,-13.1234609695476,-11.8654355905127,-10.4924325853933,98.2038544230338,32.9064609060935,1.17264731524838,-12.9576787324045
29.969123875986,-12.7388529759674,-6.91194964260211,-1.03277560612071,-12.78503379667,-10.7109252577692,-10.112642353275,99.1430295031287,33.6800572018886,0.937476560099083,-12.3674466870966
29.4044802034226,-12.7886114642638,-6.52329846537157,-1.17566013440938,-12.4576417481184,-9.57106289149334,-9.72053046722495,100.019288321102,34.3883964102052,0.700502067893031,-11.7958013779168
28.7864004832148,-12.8341599668132,-6.12775495770373,-1.31611933553544,-12.1419898551522,-8.44879965099084,-9.31934625682955,100.834117544728,35.0352374133695,0.463918031516605,-11.2435086484841
28.1204181237266,-12.8756772285123,-5.72533377660348,-1.45401747561043,-11.8386495146955,-7.34686875005231,-8.91245134503014,101.589484703078,35.6242925223114,0.229802327385203,-10.7111386395445
27.4120878646701,-12.9133535040863,-5.31610407266637,-1.58921125315607,-11.5480679712374,-6.26775606651283,-8.50327568591898,102.287726693423,36.1591841745169,0.000125802869807657,-10.1990960954029
26.6669362569511,-12.9473879052021,-4.90019303483,-1.72154766258697,-11.2705790027212,-5.21367669867639,-8.09527080016852,102.931447227459,36.6434116273583,-0.223244211502106,-9.70764552828657
25.8904185840986,-12.9779859849467,-4.47778754261057,-1.85086234067042,-11.0064142981335,-4.18655795697114,-7.69186154656514,103.523424862682,37.0803258418112,-0.438546492870824,-9.23693185239967
25.0878823427929,-13.0053575857066,-4.04913392180112,-1.97697852505852,-10.7557150637366,-3.18802900575649,-7.29639781454234,104.06653245844,37.4731110357963,-0.64413440626366,-8.78699717201936
24.264537177246,-13.0297149557169,-3.61453587519233,-2.09970673637425,-10.5185434588263,-2.21941709942729,-6.91210749018565,104.56366827312,37.8247716626451,-0.838489570035319,-8.35779441504394
23.4254309571755,-13.0512711200081,-3.17435073922347,-2.21884526740612,-10.2948935349544,-1.28175009558391,-6.54205195047826,105.017698458739,38.138123827842,-1.02023959704036,-7.94919845864432
22.5754315085698,-13.0702384715642,-2.72898429824398,-2.33418152623975,-10.0847014335539,-0.375764685535464,-6.18908519595965,105.431410385055,38.4157903884859,-1.18817851042389,-7.56101531170825
21.7192133556744,-13.0868275282935,-2.27888445669982,-2.44549423612606,-9.88785468376259,0.498080423050206,-5.85581755756537,105.807476010415,38.660199177637,-1.34128826801623,-7.19298981717545
20.861248715292,-13.1012457849974,-1.82453410701683,-2.55255644833907,-9.70420052773565,1.33958728089302,-5.54458471979362,106.148424387861,38.8735839547059,-1.47875978501653,-6.84481223513187
20.0058019023317,-13.1136965822512,-1.36644352702657,-2.65513928194993,-9.53355327408447,2.14879840456137,-5.25742259765547,106.456622333866,39.0579877986101,-1.60001190318275,-6.51612397948337
19.156926258542,-13.1243779180194,-0.905142602683055,-2.75301626855217,-9.37570073225539,2.92597438063997,-4.99604840100179,106.734262277734,39.2152687303733,-1.70470689694335,-6.20652271228781
18.3184627028504,-13.133481141839,-0.441173117462275,-2.84596814708197,-9.23040980859093,3.67157026280092,-4.76184802905923,106.983356337449,39.347107384165,-1.79276131342284,-5.91556694565436
17.4940390189267,-13.1411894945615,0.0249187051783828,-2.93378792259273,-9.09743135211699,4.38621156069448,-4.55586976433176,107.205735718802,39.4550165575711,-1.86435119073598,-5.64278025255565
16.6870690402524,-13.1476764880442,0.492589267723686,-3.01628597957751,-8.97650433147054,5.07067051099693,-4.37882407573983,107.40305459736,39.5403524740455,-1.91991096356648,-5.38765513782529
15.9007509623456,-13.1531041550103,0.961304172845782,-3.09329503404007,-8.86735940944146,5.72584320522761,-4.23108919722902,107.576797710542,39.6043275801202,-1.96012563541766,-5.14965656689656
15.1380641046715,-13.1576212328219,1.43054423609563,-3.1646747208637,-8.76972196303714,6.35272802478356,-4.1127220265807,107.728290956652,39.6480246730065,-1.98591607375587,-4.92822509619933
14.4017635626153,-13.161361370342,1.89981089251222,-3.2303156387068,-8.68331457926155,6.95240570331202,-4.02347379329152,107.858714367117,39.6724121154657,-1.99841756692211,-4.72277950396125
13.6943723378178,-13.1644414627028,2.36863097826374,-3.29014270823499,-8.60785904182663,7.526021204696,-3.96280987400047,107.969116885869,39.6783598495365,-1.99895206288099,-4.53271879398202
13.0181707222611,-13.1669602259055,2.8365608968721,-3.34411773900192,-8.54307781116256,8.07476747715694,-3.92993308820421,108.060432456066,39.6666558689748,-1.98899478472563,-4.35742344842124
12.3751829501122,-13.1689971233234,3.30319020574934,-3.39224114483378,-8.48869498962689,8.59987103055193,-3.92380978062709,108.133496978189,39.6380227560226,-1.97013618555864,-4.19625584799522
11.7671614345599,-13.1706117501424,3.76814467299702,-3.43455279496827,-8.44443675689192,9.10257919716816,-3.94319797969416,108.189065759728,39.5931338436695,-1.94404045525639,-4.04855986198861
11.1955692833343,-13.1718437690658,4.23108885184589,-3.47113203449659,-8.41003125743776,9.58414888125248,-3.98667690805531,108.227831117915,39.5326285421779,-1.91240199355261,-3.91365972458281
10.661562232417,-13.1727134696062,4.6917282049147,-3.5020969477049,-8.38520792435245,10.0458365745145,-4.05267711329768,108.250439820782,39.4571263749135,-1.87690138008902,-3.79085843299371
10.1659716259733,-13.1732229930218,5.14981079065018,-3.52760296621371,-8.36969623570685,10.4888894068215,-4.13951049396743,108.257510063511,39.3672393065155,-1.83916238247204,-3.67943600077775
9.70929054231468,-13.173358227101,5.60512850568289,-3.54784093537013,-8.36322392593913,10.914537010565,-4.24539953137337,108.249647685279,39.2635820163012,-1.80071145775094,-3.57864796008723
9.29166552364956,-13.1730913332754,6.05751786217024,-3.56303474478788,-8.36551471400882,11.3239840041958,-4.36850511182947,108.227461341821,39.1467798666797,-1.7629410478014,-3.48772452311693
8.9128964836757,-13.1723838267312,6.50686027019252,-3.57343860584936,-8.37628565512281,11.7184029423253,-4.50695243451898,108.191576361233,39.0174744292376,-1.72707776976001,-3.40587078696891
8.57244710770307,-13.1711900917909,6.95308179287298,-3.57933402913882,-8.39524426260949,12.0989276278759,-4.6588546333976,108.142647025147,38.8763265429102,-1.69415637684124,-3.3322683065749
8.26946732742693,-13.169461183853,7.39615234579965,-3.58102652640354,-8.42208557017254,12.4666467254093,-4.82233388393526,108.081367037365,38.7240169689993,-1.6650001260228,-3.26607827862253
8.00282823725483,-13.1671487493297,7.83608432124061,-3.57884203881361,-8.45648930592771,12.8225976472049,-4.99553990713815,108.008477972328,38.561244763661,-1.6402079447447,-3.20644648237207
7.77116824032603,-13.1642088879677,8.27293062969516,-3.57312307713764,-8.49811733136704,13.1677607059879,-5.17666591296341,107.924775539454,38.3887235149837,-1.62014853859311,-3.15251001149566
7.57294752275873,-13.1606057878438,8.70678216352487,-3.5642245503367,-8.54661147148556,13.5030535490401,-5.36396213070357,107.831113556352,38.2071756076864,-1.60496132414533,-3.10340570557538
7.40650649484417,-13.1563149825725,9.13776469566401,-3.55250925740431,-8.60159183481263,13.8293259170374,-5.55574714902187,107.728405590897,38.0173246961869,-1.59456381600595,-3.05828005878705
7.27012294663503,-13.1513261123707,9.56603522832162,-3.53834302382821,-8.66265569365448,14.1473548086342,-5.75041733529996,107.617624305168,37.8198865818527,-1.58866487206925,-3.01630026148375
7.16206257658292,-13.1456451105762,9.9917778048558,-3.52208948011633,-8.72937696420605,14.4578401702157,-5.94645462761884,107.499798609631,37.6155586946718,-1.58678303730395,-2.97666593262007
7.08061832024072,-13.1392957751503,10.4151987990931,-3.50410450656016,-8.80130629910568,14.7614012579235,-6.14243299509822,107.376008810404,37.4050083787198,-1.58826913892595,-2.93862103662086
7.02413539133003,-13.132320712017,10.8365217051861,-3.48473040475169,-8.87797179004625,15.0585738292395,-6.33702384462068,107.247380001795,37.1888601895991,-1.59233226859128,-2.9014654521785
6.99102086043962,-13.1247816529913,11.2559814673915,-3.46428989697627,-8.95888027713059,15.3498083147703,-6.52900061864565,107.115074015349,36.9676824399405,-1.5980683225423,-2.86456567357391
6.97973858288467,-13.1167591614778,11.6738184084589,-3.44308009101759,-9.04351926860018,15.6354691033647,-6.71724278641104,106.980280280806,36.7419732751327,-1.60449033911661,-2.82736417341759
6.98879201509214,-13.1083517504074,12.0902718331065,-3.42136657380007,-9.1313594816119,15.9158350508835,-6.90073938226427,106.844205980129,36.5121466189399,-1.61055995858791,-2.78938703046998
7.01669868427502,-13.0996744518434,12.5055733981799,-3.39937781255999,-9.22185801729404,16.191101295379,-7.07859218833128,106.708065882147,36.2785183872082,-1.61521942101973,-2.75024951755149
7.06196067459122,-13.0908568963004,12.9199403549931,-3.37730005153024,-9.3144621797037,16.4613824253915,-7.25001859270207,106.573072232833,36.0412934152721,-1.61742360190154,-2.70965944498347
7.12303546077087,-13.0820409801142,13.3335687825444,-3.35527290001707,-9.40861393886621,16.7267170010046,-7.41435408157313,106.440425045577,35.8005535730415,-1.61617164767702,-2.66741815956124
7.19831085424522,-13.0733782176159,13.7466269403845,-3.33338581531061,-9.50375502491731,16.9870733716849,-7.57105425064448,106.311303087982,35.5562475500427,-1.6105378010298,-2.62341920229529
7.28608689148333,-13.0650268874897,14.1592488731657,-3.31167568761272,-9.59933262589968,17.242356677246,-7.71969615676527,106.186855798723,35.3081827821695,-1.59970099906003,-2.57764472301899
7.38456638259249,-13.0571490863318,14.5715283935128,-3.29012572612076,-9.69480564705338,17.4924168654872,-7.85997878809916,106.068196294744,35.0560199629311,-1.58297280198886,-2.5301598308111
7.49185473429716,-13.049907795142,14.9835135581284,-3.26866581611343,-9.78965147398567,17.7370575166151,-7.99172242222247,105.956395553745,34.7992705353473,-1.55982318823429,-2.48110512262186
7.60596871007406,-13.0434640482876,15.3952017390959,-3.24717446205378,-9.88337316316326,17.9760452319053,-8.11486667043832,105.85247778869,34.5372974954263,-1.52990375138899,-2.43068767447833
7.72485307992927,-13.0379742771687,15.8065353809014,-3.22548235654474,-9.97550695570159,18.2091193233291,-8.22946706395006,105.757416975198,34.2693197485301,-1.49306786364955,-2.37917079582884
7.84640367246483,-13.0335878901369,16.2173985198245,-3.20337752985658,-10.0656299722102,18.4360015364046,-8.33569010615962,105.672134449478,33.994420141639,-1.44938742552198,-2.32686283723021
7.96849515287241,-13.0304451458398,16.627614119534,-3.18061194825211,-10.1533679047412,18.6564055560752,-8.43380678144603,105.597497462416,33.7115571559027,-1.39916589026872,-2.27410530806657
8.08901186103052,-13.0286753720714,17.0369422452523,-3.15690934675849,-10.2384024919093,18.8700460858092,-8.52418456880025,105.534318555396,33.4195801060105,-1.34294731750318,-2.22126051044823
8.20588018972857,-13.0283955712779,17.445079067592,-3.13197400767165,-10.3204785566528,19.076647345948,-8.60727805685633,105.483355617737,33.1172475766843,-1.28152126431139,-2.16869883927918
8.31710120227272,-13.0297094374375,17.851656666354,-3.10550013399289,-10.3994103993566,19.275950894697,-8.68361829588119,105.445312493164,32.8032487373538,-1.21592336642871,-2.11678585359872
8.42078243127379,-13.0327067902658,18.2562435998685,-3.07718142129954,-10.4750873551011,19.4677227183382,-8.75380105883392,105.420840016247,32.4762271012274,-1.14743150632903,-2.06586920530965
8.51516803181331,-13.0374634142635,18.6583462162916,-3.04672040716882,-10.547478327664,19.651759556418,-8.81847422581457,105.41053737138,32.1348062189267,-1.07755752018338,-2.01626552369512
8.59866666297491,-13.0440412730907,19.0574107045627,-3.01383717939672,-10.6166351034888,19.8278944229581,-8.8783245534431,105.414953673102,31.7776167157364,-1.00803446653233,-1.96824739529051
8.66987663438886,-13.0524890545903,19.4528259082095,-2.97827705599143,-10.6826942346811,19.9960012633967,-8.93406413243502,105.434589666938,31.4033240021107,-0.940799564600639,-1.9220306426603
