Finger Velocity,Scap_X,Scap_Y,Scap_Z,Shoulder horiz abd-adduction,Shoulder flexion-extension,Shoulder internal-external rotation,elbow flexion-extension,forearm pronation-supination,wrist flexion-extension,wrist radial-ulnar deviation
1.22613869448442,-13.8137724277619,-12.1859775742858,0.0229428985556907,-5.56641214829453,-49.0099474935572,3.27225722154685,57.87575296157,-31.7476522284931,0.0212164507398208,-23.6654204341772
1.49551496332263,-13.8194966152899,-12.1977936013997,0.0109284740212954,-5.56556275151866,-48.9971938224615,3.27807422431795,57.8256727965915,-31.7225684741815,-0.616945431772381,-23.0344998123664
1.77985830860805,-13.827514446207,-12.2104381334586,-0.00311732086876841,-5.5630392700383,-48.9854070760935,3.28889013445454,57.7718459667086,-31.668644024622,-1.34453138318376,-22.3170437031687
2.07699243216231,-13.8382137012537,-12.2238281959731,-0.0193370836168484,-5.55792081624116,-48.9747884839589,3.30530968623256,57.7145150500198,-31.5817576776739,-2.15991784957547,-21.5146108722782
2.38452927069768,-13.8519871523129,-12.237865873044,-0.0378664156815687,-5.54914237405722,-48.9655005345115,3.32792867848344,57.6539572596702,-31.4578048041113,-3.05967684603539,-20.6304941022997
2.69987447923755,-13.8692266922752,-12.2524386957813,-0.0588320953731343,-5.53549278922835,-48.9576549880643,3.35732544943909,57.5904718676521,-31.2927590150886,-4.0385782807742,-19.6697224107306
3.02024848880119,-13.8903170142244,-12.2674201957604,-0.0823503201367715,-5.51561552276597,-48.9513006018075,3.39405269752343,57.5243651437466,-31.082736115603,-5.08965998010474,-18.6390002435035
3.34271713422533,-13.9156289106824,-12.282670626095,-0.108525029945061,-5.4880125504484,-48.946410866291,3.43862982232874,57.4559331904976,-30.8240597292542,-6.20436730824576,-17.5465817172903
3.66422893344451,-13.9455122760162,-12.298037855466,-0.137446317458559,-5.45105175838446,-48.942872086787,3.49153590578442,57.3854431899449,-30.5133280556405,-7.37276034539181,-16.4020815855464
3.98165728623806,-13.9802889061849,-12.3133584428571,-0.169188927325513,-5.40297812645945,-48.9404721684554,3.55320339375841,57.3131136896166,-30.1474812399387,-8.58378234823896,-15.2162284993742
4.2918463395766,-14.0202451984892,-12.3284589027205,-0.203810848443944,-5.34192890616605,-48.9388904792489,3.62401248089188,57.2390946346629,-29.7238687612199,-9.82557904155511,-14.0005699803031
4.59165946291529,-14.0656248604641,-12.3431571712612,-0.241352008454296,-5.26595289149095,-48.9376891671902,3.70428614914999,57.1634478953983,-29.240316062195,-11.0858545688058,-12.7671419442205
4.87802935673958,-14.1166217435434,-12.3572642828862,-0.28183308613812,-5.17303376040897,-48.9363062978487,3.79428576238566,57.0861290445215,-28.6951893466046,-12.352247041362,-11.5281182433168
5.14800885221058,-14.1733729255456,-12.3705862597879,-0.325254461532562,-5.061117339754,-48.9340511534941,3.89420707492377,57.0069711085078,-28.0874570809993,-13.6127049030455,-10.2954571990001
5.39882148094645,-14.2359521767877,-12.3829262067157,-0.371595323114508,-4.92814252495971,-48.9301019985149,4.0041764739651,56.9256709572121,-27.4167462952082,-14.8558450189285,-9.08056225711023
5.62791091686014,-14.3043639560089,-12.3940865892808,-0.420812945998796,-4.77207547153028,-48.9235065677148,4.12424724867763,56.8417789069865,-26.6833913319108,-16.0712746108197,-7.89397264692849
5.83298842343105,-14.378538091285,-12.4038716614753,-0.472842147041616,-4.59094656535629,-48.9131854761938,4.25439567207254,56.7546919943059,-25.8884723065119,-17.2498617915613,-6.7450974228941
6.01207748230201,-14.4583253052113,-12.4120900000073,-0.527594915792472,-4.38288956923955,-48.8979386829909,4.39451670578663,56.6636512272213,-25.0338402685089,-18.3839431682565,-5.64200286714972
6.16355483237146,-14.5434937413856,-12.4185571012948,-0.584960217046721,-4.14618223044963,-48.8764550679026,4.54441919953716,56.5677429460363,-24.1221259827952,-19.4674613360376,-4.59125938624622
6.28618721016147,-14.6337266393069,-12.4230980012525,-0.644803961482476,-3.87928752291349,-48.8473251051978,4.70382055455373,56.4659042388921,-23.1567294582092,-20.4960296080795,-3.59785019294771
6.37916314773696,-14.7286212853696,-12.4255498866302,-0.706969144183575,-3.58089459828234,-48.809056542621,4.87234094397517,56.3569321869223,-22.1417879082493,-21.4669256216761,-2.6651405983832
6.44211924718249,-14.8276893378806,-12.4257646769946,-0.77127615598226,-3.24995844363011,-48.7600929216919,5.04949732080479,56.2394965806308,-21.0821207559204,-22.3790192193152,-1.79490390182265
6.47516040137533,-14.930358586495,-12.4236115657518,-0.837523279822621,-2.88573719453391,-48.6988347083336,5.23469758534548,56.1121556695651,-19.9831515499029,-23.2326430573327,-0.987397741742517
6.47887345718945,-15.0359761671753,-12.418979514634,-0.905487393204002,-2.48782602791883,-48.6236627439754,5.42723541956709,55.9733744868481,-18.8508081428417,-24.0294166965732,-0.241483299592346
6.45433380338732,-15.1438132191923,-12.4117796972296,-0.974924905025598,-2.05618655514465,-48.5329636786366,5.62628641226771,55.8215453240158,-17.6914040475701,-24.7720364946917,0.445221209402663
6.40310429159416,-15.2530709445212,-12.4019478826405,-1.04557295602833,-1.59117065394199,-48.4251570087959,5.83090617855613,55.6550100049954,-16.5115053577463,-25.4640444624492,1.07616188462109
6.32722574216517,-15.3628880123518,-12.3894467401335,-1.11715090396412,-1.09353772506902,-48.2987233112541,6.04003120459709,55.4720837008039,-15.3177888217904,-26.1095893525741,1.65565466318987
6.2291980244666,-15.4723492396279,-12.3742680300412,-1.18936210057407,-0.564464442907366,-48.1522332362211,6.25248311703753,55.2710801198885,-14.1168974534407,-26.7131925865499,2.18868418343643
6.11195031651869,-15.580495467927,-12.3564346264828,-1.26189595422036,-0.00554619406524888,-47.9843767952019,6.46697698653598,55.0503379870195,-12.9153003622475,-27.279530187529,2.68070455310514
5.97879864510632,-15.6863345421873,-12.3360022973686,-1.33443026449258,0.581210427702612,-47.793992447731,6.68213412689029,54.8082487700915,-11.7191632646603,-27.813239766964,3.13744954824748
5.83338822977331,-15.7888532734402,-12.3130611518727,-1.40663381358099,1.19340446947456,-47.5800954515441,6.8964996456862,54.5432856127863,-10.534235416728,-28.3187590211086,3.56475836844922
5.6796176245912,-15.8870302351552,-12.2877366588892,-1.478169202081,1.82826691850879,-47.3419048928722,7.10856474602425,54.2540333714636,-9.36575756378214,-28.8001994201394,3.96842145131605
5.52154141060922,-15.9798492052648,-12.2601901426041,-1.54869592332174,2.48269622703978,-47.07886876213,7.31679348722362,53.9392195386518,-8.21839403919538,-29.2612561019003,4.35404915945954
5.36324863060827,-16.0663130306725,-12.2306186722625,-1.61787367873958,3.1533024823911,-46.7906863938048,7.5196534035019,53.5977456773322,-7.09619050278034,-29.7051526317613,4.72696453241383
5.20871580220052,-16.1454576649076,-12.1992542813133,-1.68536594273062,3.83645929181026,-46.4773275568981,7.71564906924903,53.2287188118722,-6.00255714681626,-30.1346173923772,5.09211985026019
5.06163672972169,-16.2163661163708,-12.1663624747264,-1.75084378216771,4.52836212322123,-46.139047473102,7.90335740340011,52.831482046956,-4.9402756658041,-30.5518869938144,5.45403556957756
4.92523670603935,-16.2781820438362,-12.1322400100402,-1.81398991823196,5.2250915514832,-45.7763970638105,8.08146324579017,52.40564353697,-3.91152700851063,-30.9587312794833,5.81675932905262
4.80208556307252,-16.3301227438966,-12.0972119651893,-1.87450298675487,5.92267961996448,-45.3902277932489,8.24879354816714,51.9511028219374,-2.91793599182388,-31.3564942291751,6.18384220634587
4.693930771528,-16.3714912877981,-12.0616281321753,-1.93210191518276,6.61717735906558,-44.9816905889575,8.40434844054669,51.4680734930534,-1.96062829711844,-31.7461452399782,6.55832921127536
4.60157571001917,-16.4016875805402,-12.0258587983178,-1.98653030030277,7.30472142750315,-44.5522284819694,8.54732749087914,50.9571011558058,-1.04029519015173,-32.1283357683326,6.94276105765582
4.52482646327322,-16.4202181331342,-11.990289994611,-2.03756064889033,7.9815978719371,-44.1035628104333,8.67714968359773,50.4190757211831,-0.157261465938136,-32.5034570247663,7.33918449847698
4.46252169449268,-16.4267043602915,-11.9553183019077,-2.08499833488242,8.64430113584508,-43.6376730611331,8.79346598790652,49.855237172278,0.688447442969286,-32.8716952463179,7.74916887769701
4.4126458099832,-16.4208892410388,-11.9213453094014,-2.12868512848453,9.2895866766172,-43.1567706688464,8.89616383579015,49.2671741198701,1.49704261564561,-33.2330819561703,8.17382698347727
4.37251017703939,-16.4026422085094,-11.8887718185775,-2.16850216109039,9.91451584963723,-42.6632673351821,8.98536333293927,48.656814669654,2.26891569896996,-33.5875374676069,8.61383871515008
4.33897580201456,-16.3719621665939,-11.857991884505,-2.20437220270713,10.5164920654358,-42.1597386464505,9.06140552702449,48.0264093663261,3.00459168694775,-33.9349066433312,9.0694764777769
4.30868700715881,-16.3289785645308,-11.829386788808,-2.23626114476849,11.0932875967164,-41.6488839482353,9.12483350694702,47.3785062442568,3.70469140149753,-34.2749866011509,9.54063164828475
4.27828929209339,-16.2739504953805,-11.8033190449514,-2.2641786006733,11.643060783705,-41.1334835627646,9.1763674689824,46.7159182886694,4.36990385471854,-34.6075467000356,10.0268419556486
4.2446129931738,-16.2072638201219,-11.7801265439883,-2.28817755945097,12.1643637398481,-40.61635450936,9.21687514358082,46.0416838837758,5.00096794965635,-34.9323417009087,10.5273200830749
4.2048139529846,-16.1294263552676,-11.7601169542882,-2.30835305498289,12.656140981338,-40.100305908868,9.24733912606619,45.3590210852145,5.59866236509002,-35.2491193731446,11.0409840522075
4.15647042429012,-16.0410611974265,-11.7435624896091,-2.3248398442976,13.1177196829727,-39.5880952249037,9.26882269981423,44.6712767932021,6.16380200718017,-35.5576239783135,11.5664899252027
4.09764063787444,-15.942898291314,-11.7306951562664,-2.33780912310759,13.5487924893778,-39.0823864236215,9.28243568924227,43.9818721076648,6.69723912704185,-35.8575970747392,12.1022671582473
4.0268879308512,-15.8357643764061,-11.7217025842513,-2.34746434358125,13.9493939748829,-38.5857110241268,9.28930174196367,43.2942453039813,7.1998671121207,-36.1487770269371,12.6465566817157
3.94328079205903,-15.7205714713987,-11.7167245406115,-2.35403623615663,14.319871942745,-38.1004328697248,9.29052823032408,42.6117939678238,7.6726250525214,-36.4308984861524,13.1974515175005
3.84637448317307,-15.5983040766063,-11.7158502159029,-2.35777717167027,14.6608547879278,-37.6287172860376,9.28717970506187,41.937817865439,8.11650143366643,-36.7036929045161,13.752939476032
3.73617971395986,-15.4700052945778,-11.71911636459,-2.3589550304926,14.9732161251394,-37.1725051177285,9.28025555282947,41.275464100485,8.53253567588366,-36.9668908552166,14.3109472163794
3.61312261334227,-15.336762089451,-11.7265063667592,-2.35784677042243,15.2580378154329,-36.7334919620465,9.27067222678509,40.627676020531,8.92181668734756,-37.2202266003798,14.869384737179
3.47799915774344,-15.199689925427,-11.7379502606607,-2.35473190280004,15.5165724226416,-36.3131127529642,9.25925015591187,39.9971471887229,9.28547807138638,-37.4634450301678,15.4261892267814
3.33192636667171,-15.0599170427714,-11.7533257733647,-2.34988609385768,15.7502060091499,-35.9125316999801,9.24670521414283,39.3862815376284,9.62469007873175,-37.6963108210406,15.9793671499412
3.17629194782966,-14.9185686439158,-11.7724603517126,-2.34357510375314,15.9604220522526,-35.5326374542764,9.23364445889186,38.7971605878727,9.9406487674421,-37.9186194397775,16.5270334778793
3.01270363207507,-14.7767512707599,-11.7951341704707,-2.33604925916613,16.148767137644,-35.1740432642981,9.22056573233732,38.2315183627613,10.2345630892379,-38.1302094558726,17.0674470597351
2.84293913587163,-14.6355376566008,-11.8210840709674,-2.32753862862873,16.3168189705082,-34.8370917942162,9.20786064939844,37.6907243787094,10.507640746323,-38.3309755188285,17.5990412671772
2.66889748233913,-14.4959523326877,-11.850008360652,-2.31824903560973,16.4661571386452,-34.5218642114519,9.19582046256056,37.1757748492099,10.761073669302,-38.5208813102194,18.1204492092483
2.49255226578571,-14.3589582606024,-11.8815723795764,-2.30835900596428,16.5983369658258,-34.2281931009174,9.18464428586375,36.6872920094231,10.9960238849714,-38.6999717875346,18.6305230034557
2.31590732993041,-14.2254447468983,-11.9154147130329,-2.29801770679556,16.7148667052458,-33.955678731328,9.17444916856791,36.2255312515051,11.2136104096953,-38.8683840720606,19.1283467857949
2.14095522336914,-14.096216874422,-11.9511539028012,-2.28734389488793,16.8171882379756,-33.7037081818806,9.16528152229994,35.790395565064,11.4148976538974,-39.0263563605347,19.6132433256338
1.96963867657426,-13.971986654515,-11.9883954864927,-2.27642585475906,16.906661354462,-33.4714768349926,9.15712941545461,35.3814566122055,11.6008856807207,-39.174234249624,20.0847742712165
1.80381519346864,-13.8533660659018,-12.0267391788404,-2.2653222690201,16.9845516072068,-33.258011749393,9.14993525396638,34.9979816377399,11.7725025395609,-39.3124738897918,20.5427341983323
1.6452246498303,-13.7408621002228,-12.0657860030569,-2.25406392915017,17.0520216347518,-33.0621964426305,9.14360837631431,34.6389653220464,11.9305987933626,-39.4416414859555,20.9871387876002
1.49545953062333,-13.6348738819746,-12.1051451854441,-2.2426561670301,17.1101257792389,-32.8827966290116,9.13803711685634,34.3031656236861,12.0759442705232,-39.5624088575233,21.4182076219604
1.35593713330419,-13.5356918740973,-12.1444406404807,-2.23108187039621,17.159807758521,-32.7184864764516,9.13309994460333,33.9891426260574,12.209226992933,-39.6755450209859,21.836342260608
1.22787278764231,-13.4434991228115,-12.1833168932105,-2.21930494038605,17.2019011116122,-32.5678749634111,9.12867536025735,33.695299391159,12.3310541643426,-39.7819039877463,22.242100380745
1.1122530820712,-13.3583744403313,-12.221444308401,-2.20727405510835,17.2371321116469,-32.4295319351785,9.12465031920072,33.4199238298452,12.441955056549,-39.8824091170725,22.6361668638551
1.00980859620645,-13.2802973750601,-12.2585235207775,-2.19492661513313,17.2661248283449,-32.3020134778484,9.12092702982382,33.1612306215956,12.5423856096699,-39.9780344257612,23.0193227415179
0.9209872026552,-13.2091547781853,-12.2942889874556,-2.18219275960366,17.2894080161008,-32.1838862493037,9.11742804971204,32.9174022592202,12.6327345625564,-40.0697832804673,23.3924129277205
0.845931930802363,-13.1447487444215,-12.328511612415,-2.16899935270157,17.3074235006699,-32.0737504295441,9.11409966690047,32.6866283551385,12.7133309396301,-40.1586649389275,23.7563136701199
0.784471119986089,-13.0868056833588,-12.3610004232001,-2.15527385029375,17.3205357365913,-31.9702609774784,9.11091361158119,32.4671424241202,12.7844527306427,-40.2456694874353,24.1119006592394
0.736130921306714,-13.0349862662357,-12.391603310614,-2.14094796725785,17.3290422096325,-31.8721469085864,9.10786719615414,32.2572554502549,12.8463366017201,-40.3317418403286,24.4600187361523
0.700177652078096,-12.9888959902194,-12.420206870814,-2.1259610767983,17.3331843638173,-31.7782283392545,9.10498202770758,32.0553856501813,12.8991884625761,-40.4177555986681,24.8014541191234
0.675688081829047,-12.9480961068621,-12.4467354144625,-2.11026328205938,17.3331587407825,-31.6874310792618,9.10230147586362,31.8600839552469,12.9431946832027,-40.5044876738241,25.1369100088558
0.661632722920252,-12.9121146714844,-12.4711492289034,-2.09381810616694,17.3291280307165,-31.5987985925396,9.09988710982733,31.6700548470071,12.9785337087754,-40.592594639812,25.4669863214949
0.656949020037853,-12.8804574843949,-12.4934421961679,-2.07660474997067,17.3212317505014,-31.5115011879358,9.09781434073851,31.4841722910458,13.0053877751532,-40.6825917841502,25.7921641442568
0.660584912934866,-12.8526187121716,-12.5136388809423,-2.05861986917054,17.3095962876703,-31.4248423485592,9.09616751835341,31.3014906253686,13.0239543900395,-40.7748357981811,26.1127953236273
0.671507055764945,-12.8280909971245,-12.5317912078804,-2.03987882655003,17.2943440790033,-31.338262162446,9.09503473458172,31.1212503752917,13.0344572226928,-40.8695119957036,26.4290973901279
0.6886830204419,-12.8063748854338,-12.5479748473646,-2.02041638245923,17.2756017293101,-31.2513378783138,9.09450258093678,30.9428790886171,13.0371560394851,-40.9666268581415,26.7411537987111
0.711054547999375,-12.786987429502,-12.5622854244685,-2.00028679785734,17.2535069177652,-31.1637816748038,9.09465109263419,30.7659874098446,13.0323553327279,-41.0660065381376,27.0489192205924
0.737517300811244,-12.7694698472784,-12.5748346589254,-1.97956333822474,17.2282139842406,-31.0754357950672,9.09554908855949,30.5903607323015,13.0204113146552,-41.1673016871396,27.3522293730311
0.766915433160171,-12.7533941491683,-12.5857465352263,-1.95833718245496,17.1998981338362,-30.9862652561443,9.09725008405965,30.4159468731994,13.0017369864374,-41.2699986311901,27.6508146483641
0.79805185241264,-12.7383686695506,-12.5951535920886,-1.93671575804257,17.1687582410855,-30.8963483912241,9.09978891450324,30.2428403032562,12.9768050442198,-41.3734365634735,27.9443166357258
0.829710408907343,-12.724042463479,-12.6031934101096,-1.91482054220639,17.1350182735751,-30.8058655220614,9.10317916511717,30.0712635299093,12.9461484527049,-41.4768300886527,28.2323065289874
0.860684831427306,-12.7101085499827,-12.610005365949,-1.8927843871917,17.0989273873152,-30.7150860901069,9.10741146102525,29.9015462847013,12.9103586033996,-41.5792961346408,28.5143043706073
0.889809892435136,-12.6963060028366,-12.6157277105283,-1.87074844587478,17.0607587741475,-30.6243545998968,9.11245263505328,29.7341032030672,12.8700810772506,-41.6798839426605,28.7897980911792
0.915991728818874,-12.6824209092439,-12.6204950165149,-1.84885879044901,17.0208073662654,-30.5340757471454,9.11824576239436,29.5694107074788,12.8260091417635,-41.7776066030181,29.058261390023
0.938235615260276,-12.6682862374879,-12.6244360258058,-1.82726283212327,16.9793865255483,-30.4446991163957,9.1247110307868,29.4079838108696,12.7788752177588,-41.8714724851245,29.3191696800228
0.955670461846601,-12.6537806764261,-12.6276719103251,-1.80610566247421,16.9368238657258,-30.356703838535,9.13174740047791,29.2503535455058,12.72944063806,-41.9605149556408,29.5720135757567
0.967569874297956,-12.6388265322096,-12.6303149399816,-1.78552644540393,16.8934563718353,-30.2705835956772,9.13923499597873,29.0970456925519,12.6784840834814,-42.0438189973024,29.8163096998735
0.973369881681232,-12.6233867897107,-12.6324675332482,-1.76565499000905,16.8496249917329,-30.1868323468039,9.14703815648833,28.9485614398352,12.6267891198265,-42.1205437113035,30.0516088749538
0.972683516255795,-12.6074614661367,-12.6342216532175,-1.74660862720324,16.8056688764992,-30.1059311189764,9.15500905134292,28.8053605318213,12.5751312718457,-42.1899401466873,30.2775020132221
0.965312401087055,-12.5910834002964,-12.6356585076054,-1.72848949689597,16.7619194399211,-30.0283361655957,9.16299174383296,28.6678474002607,12.5242650521659,-42.2513643558973,30.4936241747522
0.951255400087182,-12.5743136317372,-12.636848513086,-1.71138233059251,16.718694393774,-29.9544687387545,9.17082656824053,28.5363606795575,12.4749113145427,-42.3042859362886,30.6996573119961
0.93071421342895,-12.5572365292799,-12.6378514885695,-1.69535278995158,16.6762918991357,-29.884706661955,9.17835467718741,28.4111664187572,12.4277452299151,-42.3482925413256,30.8953321571768
0.904095529255341,-12.5399548287858,-12.6387170458737,-1.68044639740588,16.6349849580176,-29.8193778258305,9.18542262076193,28.2924552015872,12.3833851054567,-42.3830909504178,31.080429572617
0.872008910980261,-12.522584735785,-12.639485148445,-1.66668807095658,16.5950161562593,-29.758755665505,9.19188683183284,28.1803432770723,12.3423821948682,-42.4085053305831,31.254781533726
