Finger Velocity,Scap_X,Scap_Y,Scap_Z,Shoulder horiz abd-adduction,Shoulder flexion-extension,Shoulder internal-external rotation,elbow flexion-extension,forearm pronation-supination,wrist flexion-extension,wrist radial-ulnar deviation
1.28678003657821,-13.2693346794178,-12.6179923310095,0.151142052381382,-6.85354431576211,-47.6840673722502,1.41040576746898,57.4471955879769,-32.8224057819697,4.39561831547168,-21.7575254980509
1.52892040837775,-13.3049515972685,-12.609881049172,0.126339405134526,-6.80231129661294,-47.6661334812978,1.47331422342423,57.4004647886263,-32.5837621482933,4.24465338473151,-21.6301068203974
1.78285521580919,-13.3433687857962,-12.6001388572268,0.0994267879817234,-6.74134276291883,-47.6521456918344,1.54523864736894,57.3539063151317,-32.2960128237921,4.04667474894489,-21.4720475120227
2.04658597209879,-13.3844503190506,-12.5886880949911,0.0703160927195922,-6.66949976617468,-47.6424751200964,1.62658192939509,57.3077598533455,-31.9561300363819,3.79749721068811,-21.2809627096652
2.31797716207374,-13.4280355980307,-12.5754700880715,0.0389160150301283,-6.5855880096583,-47.637379689473,1.71770180501403,57.2621692923524,-31.5614519547524,3.49298728366226,-21.0545499860384
2.59476635385532,-13.4739429550841,-12.5604467200121,0.00513345577307421,-6.48836815240971,-47.636982587042,1.81890605853204,57.2171613514105,-31.109741676344,3.1290952173165,-20.7906083756721
2.874585334982,-13.5219734696277,-12.543601671928,-0.0311245642957203,-6.37656857741325,-47.6412523815256,1.9304478733494,57.1726259272046,-30.5992441286723,2.70190100288409,-20.4870645833227
3.15498803136234,-13.5719147786965,-12.5249412960874,-0.069948513342357,-6.24890065018047,-47.6499856234743,2.05252121801054,57.1282990201522,-30.0287398026204,2.20767946525639,-20.1420093935631
3.43348284339754,-13.6235446683917,-12.5044950828505,-0.111423555147169,-6.10407641182381,-47.6627927287133,2.18525615462036,57.0837490348769,-29.3975938430223,1.64298854092263,-19.7537465084245
3.70756784853861,-13.6766342503047,-12.4823156754306,-0.155626458173496,-5.94082857060056,-47.6790878831735,2.32871396987406,57.038367141808,-28.705798601882,1.00478308108199,-19.320854727358
3.9747676931117,-13.7309505588893,-12.4584783896474,-0.202622330094258,-5.7579325780288,-47.6980836026382,2.48288205813264,56.9913622395283,-27.9540073874403,0.290554051925451,-18.8422626114196
4.23267117838448,-13.7862584488691,-12.4330802109598,-0.252461306154768,-5.55423049770581,-47.7187904371467,2.64766853099694,56.9417608782292,-27.1435568981882,-0.501510036314141,-18.3173326750268
4.47896864476573,-13.8423217231793,-12.4062382697711,-0.305175312845796,-5.32865629571417,-47.740022132058,2.82289658904248,56.8884123036747,-26.2764757879271,-1.37234602257205,-17.7459499410205
4.71148832331936,-13.8989034789089,-12.3780878328982,-0.360775011688871,-5.08026210338169,-47.760406357408,3.00829876537772,56.8299985722052,-25.3554770242613,-2.32183323631612,-17.1286076838846
4.92823087901941,-13.9557657180274,-12.3487798838451,-0.419247004210186,-4.8082449308468,-47.7784009107908,3.20351122863151,56.7650494862585,-24.3839322160852,-3.34861772916012,-16.4664817384138
5.12740142662447,-14.0126683266938,-12.3184783878062,-0.48055135266218,-4.51197324542564,-47.7923151031021,3.40806840628092,56.6919619197762,-23.3658268987005,-4.44995841122898,-15.7614842157141
5.30743836267625,-14.0693675755501,-12.2873573461617,-0.544619448870734,-4.1910127682253,-47.8003358623119,3.62139825676354,56.6090229511143,-22.3056968309558,-5.62161048784199,-15.0162880884614
5.46703842746188,-14.1256143275199,-12.2555977436794,-0.611352253340791,-3.8451507783945,-47.8005579425803,3.84281858563672,56.5144361032801,-21.2085465837829,-6.85776042962973,-14.2343159762649
5.60517748833659,-14.1811521555168,-12.2233844869637,-0.680618931101833,-3.47441814251958,-47.7910175045966,4.07153486879752,56.4063499166094,-20.0797529644805,-8.15102364496568,-13.4196894904097
5.72112661884499,-14.2357155704301,-12.1909034296196,-0.752255924846497,-3.07910821085732,-47.7697282388656,4.3066401046561,56.2828880572792,-18.924956995604,-9.49251124400462,-12.5771393492312
5.8144631340845,-14.289028544141,-12.1583385775106,-0.826066520470042,-2.65979165664416,-47.7347191397122,4.54711724710973,56.1421801979118,-17.7499491162159,-10.8719663886056,-11.7118805573781
5.88507632876057,-14.3408034894915,-12.1258695624383,-0.901820967208289,-2.21732630403317,-47.6840730047878,4.79184475015954,55.9823929822965,-16.560552869058,-12.2779645968214,-10.8294605401443
5.93316774729561,-14.3907408340573,-12.0936694610671,-0.979257210692161,-1.75286102381849,-47.6159647280655,5.03960566883594,55.8017604838854,-15.3625124853266,-13.6981669419965,-9.93559061784119
5.95924589227145,-14.4385292978688,-12.0619030170948,-1.05808228298362,-1.26783289851011,-47.5286984668736,5.28910060923036,55.5986136656732,-14.1613894500506,-15.1196111185491,-9.03597222723025
5.96411534610029,-14.4838469536544,-12.030725300469,-1.13797437220198,-0.763957079273908,-47.4207427911066,5.53896461493084,55.371408432461,-12.962472379374,-16.5290233094366,-8.13612879625212
5.94886033990691,-14.5263631094144,-12.0002808114711,-1.21858556975541,-0.243209068569229,-47.2907629646252,5.78778783508103,55.1187519279824,-11.7707034828917,-17.9131337963104,-7.24125240645442
5.91482285363626,-14.5657410094772,-11.9707030132025,-1.29954526865946,0.292200460661491,-47.1376495673408,6.03413955683627,54.83942676657,-10.5906236544712,-19.2589810689111,-6.35607180266361
5.86357537528126,-14.6016413075353,-11.9421142556074,-1.38046416356039,0.839857793673803,-46.9605427455631,6.27659491993049,54.5324129031253,-9.42633695549652,-20.5541923278392,-5.48474547876371
5.79688849098219,-14.6337262286468,-11.9146260384326,-1.46093878235261,1.39718434679973,-46.7588514808083,6.51376338730145,54.196906841697,-8.28149402901887,-21.7872321119126,-4.63078098048368
5.71669353165704,-14.661664308309,-11.8883395494929,-1.54055646039368,1.96147964841805,-46.5322673938135,6.7443178503024,53.8323378733086,-7.15929290127301,-22.9476146512825,-3.79697959674384
5.62504058014154,-14.6851355737094,-11.8633464082458,-1.6189006504664,2.52996764054796,-46.280772749092,6.96702312149209,53.438381033496,-6.0624947586434,-24.0260788397669,-2.98540446788662
5.52405226370838,-14.7038370129765,-11.8397295430259,-1.69555644476225,3.09984465682777,-46.0046424913498,7.18076252426123,53.014966493402,-4.99345167513031,-25.0147270313123,-2.19736981400093
5.41587394026615,-14.7174881624408,-11.8175641334108,-1.77011617159404,3.66832737857194,-45.7044403200985,7.38456133210278,52.5622851503223,-3.95414291894097,-25.9071300915827,-1.43344926778108
5.30262115009416,-14.7258366311773,-11.7969185568071,-1.84218492349838,4.23269912255919,-45.3810089828276,7.57760594303146,52.08079025847,-2.94621637698175,-26.6984013974453,-0.69350188277595
5.1863255569643,-14.7286633782942,-11.77785528961,-1.91138587792225,4.79035296585874,-45.0354551314862,7.7592578924569,51.5711950271356,-1.97103178127197,-27.3852420061724,0.0232849958973487
5.06888103273075,-14.7257875623349,-11.760431726375,-1.97736528613432,5.33883044587156,-44.669129235439,7.929062096502,51.0344662031197,-1.02970276831869,-27.9659583343922,0.71833639324729
4.95199200939886,-14.7170707931918,-11.7447008924466,-2.03979702652227,5.8758548601058,-44.283601171814,8.08674905229051,50.47181374591,-0.123135300588315,-28.4404527911475,1.39361426243215
4.83712665887078,-14.702420634065,-11.7307120335657,-2.09838664066183,6.3993584987275,-43.8806322176389,8.23223106996704,49.8846767984635,0.747939431952523,-28.810187254397,2.05152676527246
4.72547775674993,-14.6817932242009,-11.7185110690381,-2.15287479166152,6.90750344623827,-43.4621442436853,8.36559294068335,49.2747062498163,1.58293888265384,-29.0781192444426,2.6948240221814
4.61793411966548,-14.6551949235175,-11.7081408944054,-2.20304010358185,7.39869586883016,-43.0301869539247,8.48707772788581,48.6437442699093,2.38141040680037,-29.24861111249,3.32648328528164
4.51506516700762,-14.6226829179021,-11.6996415184546,-2.24870135876603,7.87159395093256,-42.5869040249204,8.5970685843575,47.9938012657404,3.14301990849339,-29.327313396381,3.94958773638268
4.4171203947676,-14.584364766192,-11.6930500219326,-2.28971904720692,8.3251098511638,-42.1344989768764,8.69606763152663,47.3270307595959,3.86754731649442,-29.3210245480007,4.56720415808546
4.32404440034927,-14.5403969118736,-11.6884003338253,-2.32599627827103,8.75840621012086,-41.6752015562482,8.78467299142465,46.6457027247868,4.55488785758728,-29.2375303774318,5.1822653777322
4.23550670711144,-14.4909822204282,-11.6857228332475,-2.35747907934753,9.17088786032589,-41.2112353358991,8.86355504923889,45.9521759310271,5.20505773833242,-29.0854276652897,5.79746351055961
4.15094423296537,-14.436366635393,-11.6850437951029,-2.38415611727303,9.56218946407685,-40.7447871504284,8.93343296112232,45.2488698481122,5.81820262273049,-28.8739373326532,6.41515957134613
4.06961308109861,-14.376835072456,-11.6863847012522,-2.4060578854938,9.9321598387011,-40.2779788863521,8.99505231587434,44.5382366313489,6.39460721411098,-28.6127131897775,7.03731400658754
3.99064560902654,-14.3127066910715,-11.689761436006,-2.42325540224677,10.2808437234227,-39.8128420421088,9.0491647149222,43.8227336676388,6.93470431082568,-28.311652501072,7.66544122888794
3.91310855666745,-14.2443296962065,-11.6951833787937,-2.43585846360896,10.6084617072137,-39.3512953665611,9.09650986288189,43.1047971049449,7.43908189042049,-27.9807143524728,8.30058947687413
3.83605836176328,-14.172075827974,-11.7026524022772,-2.44401349219364,10.9153889870563,-38.8951257844676,9.13780057645162,42.3868167303845,7.90848706003404,-27.6297511060772,8.94334546747231
3.75859053435029,-14.0963346943151,-11.7121617845713,-2.4479010189596,11.2021335722207,-38.4459727294081,9.1737109363784,41.6711125109444,8.3438260603964,-27.2683571502073,9.59386154902316
3.67988091909134,-14.0175080929293,-11.7236950512181,-2.44773283255212,11.4693144958295,-38.0053159297273,9.20486763552755,40.9599130674714,8.7461598923126,-26.9057378003518,10.2519015922398
3.59921766342629,-13.9360044549946,-11.7372247751517,-2.44374882863305,11.7176405378124,-37.5744666277694,9.23184442379969,40.2553363138684,9.11669551090423,-26.5505997014651,10.9169008270588
3.51602359018873,-13.8522335262112,-11.7527113781063,-2.43621359202833,11.9478898993974,-37.1545621527707,9.25515942401461,39.5593724554827,9.4567728664198,-26.2110626032335,11.5880343351183
3.42986936424342,-13.7666013816093,-11.770101991086,-2.42541274769704,12.1608911955524,-36.7465637112843,9.27527499447959,38.8738695021149,9.76784832884061,-25.8945911371369,12.2642889376505
3.34047831893756,-13.6795058508947,-11.7893294417089,-2.41164912174315,12.3575060482145,-36.3512572069635,9.29259974409743,38.2005214122066,10.0514751991491,-25.6079443666548,12.9445336889129
3.24772408622912,-13.5913324121564,-11.8103114409548,-2.39523875966945,12.5386134728741,-35.9692568565364,9.3074922642579,37.540858945531,10.3092820863026,-25.3571404329702,13.627584954016
3.15162229362865,-13.5024505941903,-11.8329500405298,-2.37650685461502,12.7050961595044,-35.6010113335247,9.32026612664005,36.8962432611709,10.5429499384653,-25.1474335003694,14.312262966304
3.05231759795615,-13.4132109117754,-11.8571314246881,-2.35578364221217,12.8578286628167,-35.2468121465779,9.33119570338472,36.2678622542529,10.7541884916442,-24.983300318718,14.9974377017048
2.95006726321247,-13.3239423442944,-11.8827260877393,-2.33340032000406,12.9976674445571,-34.9068039433635,9.34052239063783,35.6567295770436,10.944712864393,-24.8684339947683,15.6820627969113
2.84522239155551,-13.2349503564663,-11.9095894324417,-2.30968504813261,13.1254426592672,-34.5809964204258,9.34846085363169,35.0636862367096,11.1162209930999,-24.805742946018,16.365197028832
2.73820780612437,-13.1465154508134,-11.9375628071163,-2.28495908555664,13.2419515466632,-34.2692775115587,9.35520495957034,34.4894046049805,11.2703725603515,-24.7973534378155,17.0460135390889
2.6295014765312,-13.0588922343127,-11.9664749820743,-2.25953311393051,13.3479532841297,-33.9714275213279,9.36093312457586,33.9343946182596,11.408770001213,-24.8446145279675,17.7237975245317
2.51961427901811,-12.9723089752939,-11.9961440489616,-2.23370379975289,13.4441651545697,-33.6871338682471,9.36581287204022,33.3990118952913,11.5329420661024,-24.9481046673914,18.3979335395404
2.40907079494833,-12.8869676202082,-12.0263797090184,-2.2077506430949,13.5312598922794,-33.4160061080065,9.3700044754189,32.8834674586622,11.6443302779544,-25.1076396708092,19.0678838977299
2.29839177139569,-12.8030442337164,-12.0569858977351,-2.18193315617351,13.6098640794028,-33.1575909251693,9.37366362901813,32.387838722202,11.7442784654871,-25.3222822966735,19.7331599464327
2.18807879218025,-12.7206898206188,-12.0877636753433,-2.15648840660522,13.6805574763288,-32.9113868118913,9.37694314960275,31.9120814027806,11.8340254074646,-25.5903542287149,20.3932882277889
2.07860163232013,-12.6400314852268,-12.1185142975996,-2.13162895015572,13.7438731803745,-32.6768581889171,9.37999376033114,31.4560420311871,11.9147005001914,-25.9094517705209,21.0477737256219
1.97038868974737,-12.5611738830874,-12.1490423719237,-2.10754116945461,13.800298517156,-32.453448759747,9.38296404960836,31.0194707672092,11.9873222665376,-26.2764669903634,21.6960625116459
1.8638208032381,-12.4842009213564,-12.1791590014479,-2.08438403076939,13.850276576867,-32.240593918916,9.38599973134898,30.602034260875,12.0527994583715,-26.6876163496247,22.3375061459404
1.75922867552971,-12.4091776669657,-12.2086848231915,-2.06228827032714,13.8942083130291,-32.0377320602013,9.38924235788222,30.2033283377676,12.111934462034,-27.1384789928811,22.9713301626036
1.65689402969954,-12.3361524249834,-12.2374528541257,-2.04135602219851,13.9324551247441,-31.8443146536643,9.39282764986983,29.8228903168923,12.1654286934754,-27.6240468345477,23.5966088740619
1.55705454295533,-12.2651589519607,-12.2653110683162,-2.0216608978174,13.9653418455365,-31.659814985105,9.39688360716012,29.4602107934288,12.2138896594832,-28.1387882856778,24.2122485251803
1.45991253611783,-12.1962187699587,-12.2921246387802,-2.00324852057777,13.9931600631542,-31.4837354794225,9.40152855067678,29.1147447366603,12.2578393572682,-28.6767268773772,24.816980485959
1.36564736169163,-12.1293435466916,-12.3177777892125,-1.98613750834732,14.016171696733,-31.3156135600846,9.40686922185651,28.7859217681991,12.2977236818544,-29.231535161433,25.4093656728609
1.27443143841466,-12.064537506327,-12.3421752133822,-1.97032088471293,14.0346127613708,-31.1550260286791,9.41299903791911,28.4731555020222,12.3339225097247,-29.7966431691612,25.9878107439588
1.1864499255754,-12.0017998337074,-12.365243033467,-1.9557678881494,14.0486972536998,-31.0015919800275,9.41999657192928,28.1758518508698,12.3667601330829,-30.3653594845458,26.5505958583615
1.10192409273847,-11.9411270314101,-12.3869292821937,-1.94242613724812,14.0586210922486,-30.8549742994363,9.4279242980675,27.8934162362823,12.3965157361298,-30.9310017534768,27.0959129865686
1.02113844748259,-11.8825151840849,-12.4072039069705,-1.9302240993785,14.0645660414345,-30.7148798193175,9.43682761707102,27.6252596816542,12.4234336320326,-31.4870323390144,27.6219129853148
0.944471467739035,-11.8259620787908,-12.4260583071255,-1.91907380013238,14.0667035392834,-30.5810582415452,9.44673415786545,27.3708038155134,12.4477330109789,-32.0271939809382,28.1267589935768
0.872429006033955,-11.771469125102,-12.4435044275298,-1.90887370255855,14.0651983399905,-30.4532999580491,9.45765334171144,27.1294848599618,12.4696169783646,-32.5456398455821,28.6086832395025
0.805677476159385,-11.7190430164435,-12.4595734423132,-1.89951167945208,14.0602118772643,-30.3314329241146,9.46957619521134,26.9007567205193,12.4892806826716,-33.0370523349725,29.0660441208972
0.745069874096571,-11.6686970761377,-12.474314070211,-1.89086799967947,14.0519052563912,-30.21531875569,9.48247540595632,26.6840933239554,12.5069183460812,-33.4967454824467,29.4973804551925
0.691650644144767,-11.6204522384188,-12.4877905682225,-1.88281825156475,14.0404417932579,-30.1048482332583,9.49630562478928,26.4789903691,12.52272902459,-33.9207466565094,29.9014600784987
0.646616038782975,-11.5743376249086,-12.5000804537369,-1.87523613313102,14.0259890350471,-29.9999364009498,9.51100402651348,26.2849666648282,12.5369209458462,-34.3058545322595,30.2773204669607
0.611200541759878,-11.5303906891109,-12.5112720089948,-1.86799604976864,14.008720215876,-29.9005174510588,9.5264911436347,26.1015652339348,12.5497143040558,-34.6496717339046,30.6242996910911
0.586470982845827,-11.4886569146503,-12.5214616274267,-1.86097547306973,13.9888151186438,-29.8065395804845,9.54267198615331,25.9283543653624,12.5613424294609,-34.9506120444443,30.9420567143305
0.573053724348329,-11.4491890672516,-12.530751069327,-1.85405702859935,13.9664603318649,-29.7179599959476,9.55943745686007,25.7649288021913,12.5720512920358,-35.207883468043,31.2305807313804
0.57088672115078,-11.4120460153894,-12.5392447028093,-1.84713029431128,13.9418489082406,-29.6347402294698,9.57666606709397,25.610911258593,12.5820973442731,-35.4214496008389,31.4901898493144
0.579118961988272,-11.3772911492333,-12.5470468123024,-1.84009330441748,13.9151794498759,-29.5568419061486,9.59422595156548,25.4659544625526,12.5917437572451,-35.5919726520236,31.7215199146811
0.596216857407821,-11.3449904412862,-12.5542590588739,-1.83285376506714,13.886654662215,-29.4842230841509,9.61197717170593,25.3297439170033,12.6012551577899,-35.7207420396003,31.9255046782598
0.620218093506981,-11.3152102047729,-12.5609781736136,-1.82532999769293,13.8564794336947,-29.4168352623051,9.62977428579449,25.202001552857,12.6108910293889,-35.8095927726939,32.1033487721169
0.649008209584268,-11.2880146172818,-12.567293957282,-1.81745163304058,13.8248585097372,-29.354621123298,9.64746915255468,25.0824904070569,12.6208979885066,-35.8608178490108,32.2564951576275
0.680526593692046,-11.2634630869318,-12.5732876470239,-1.80916008313622,13.7919938372716,-29.2975130505418,9.66491392380884,24.9710203958813,12.6315011851108,-35.8770786787149,32.3865887917152
0.712878864816468,-11.2416075457769,-12.5790306953862,-1.80040881882603,13.7580816596227,-29.2454324259068,9.68196417000826,24.8674551738333,12.6428950967619,-35.8613171378918,32.4954382501386
0.744379066316153,-11.2224897596943,-12.5845839897692,-1.79116347654596,13.7233094424984,-29.19828968575,9.69848206807184,24.7717199815455,12.6552339909616,-35.8166722996183,32.584976936004
0.773556216101662,-11.206138745458,-12.5899975230463,-1.78140181054506,13.6878527114127,-29.1559850855571,9.7143395638741,24.6838103020263,12.6686223261393,-35.7464042340594,32.6572252897733
0.7991526632336,-11.1925683844103,-12.5953105088362,-1.77111349817917,13.6518718805567,-29.1184101000492,9.72942140564921,24.6038010703118,12.6831053548124,-35.6538265630782,32.7142551210443
0.820131863370724,-11.1817753184922,-12.6005519178937,-1.76029979871707,13.6155091535976,-29.0854493662747,9.74362793514173,24.531856121148,12.6986601866023,-35.5422487577213,32.7581568385684
0.835706829288372,-11.1737372081265,-12.6057413959098,-1.7489730620772,13.5788855777527,-29.0569830615781,9.75687752442314,24.4682375139521,12.7151875625091,-35.4149285351612,32.7910100139288
0.845398327505682,-11.1684114217661,-12.6108905092479,-1.73715608313806,13.542098332277,-29.0328895951894,9.76910855842765,24.4133143436291,12.7325045813616,-35.2750341836804,32.814857424453
0.84913278799653,-11.1657342134375,-12.6160042556777,-1.72488129854321,13.5052183300258,-29.0130484807789,9.78028088432446,24.3675706301301,12.7503386021054,-35.1256162242363,32.8316825014625
0.847392204312233,-11.1656204279523,-12.6210827729319,-1.71218982481299,13.4682882061445,-28.9973432486128,9.79037667449204,24.33161188077,12.768322522209,-34.9695874831032,32.8433899422193
