Finger Velocity,Scap_X,Scap_Y,Scap_Z,Shoulder horiz abd-adduction,Shoulder flexion-extension,Shoulder internal-external rotation,elbow flexion-extension,forearm pronation-supination,wrist flexion-extension,wrist radial-ulnar deviation
2.40170534819806,-6.70541862501031,-18.5147325192101,3.58792783278793,-22.4908095855023,-42.6076459165659,-8.48146882965371,63.2482230890242,-21.9436831905936,-17.4215574368876,-12.7304016046388
3.05433360852167,-6.77911337905736,-18.4942346658963,3.55838769699891,-22.4466339891164,-42.4357323976385,-8.4884551546767,63.3288402300073,-21.3859919156919,-17.1043929124587,-13.0513729656812
3.80610158742149,-6.85580474774484,-18.4716744700076,3.52849497755471,-22.3928736519143,-42.2387531508824,-8.5072217996925,63.4413917088168,-20.7628805674569,-16.7480513682818,-13.38364637708
4.64671330920087,-6.93528073165291,-18.4468399980322,3.49813088695191,-22.3287684978582,-42.0142448796528,-8.53774592051611,63.5889164246275,-20.0720865922326,-16.3543855639887,-13.7233879652567
5.56875420518808,-7.01732826354092,-18.419503400928,3.46711429000678,-22.2535628097908,-41.7597025127369,-8.57973423774919,63.7743923444379,-19.3116892149191,-15.9260932065671,-14.0662645016189
6.56599003651757,-7.1017362172999,-18.3894222248021,3.435200650662,-22.1665079952072,-41.4726072999121,-8.63262219009157,64.0007264676414,-18.480125309587,-15.4666610086343,-14.4075102034494
7.63247745504836,-7.18829775839996,-18.3563410299165,3.40208297781179,-22.0668661546583,-41.1504568543534,-8.69558083991324,64.2707471266609,-17.5762023911399,-14.980278696825,-14.7420146381501
8.76210644198849,-7.27681199696687,-18.3199932459544,3.36739485533428,-21.9539150366749,-40.7907964465656,-8.7675311693169,64.5871969429131,-16.5991105493515,-14.4717258491609,-15.0644304670434
9.94837054602454,-7.36708493366176,-18.2801031731301,3.33071558137959,-21.8269549615564,-40.3912508142978,-8.84716508006102,64.9527244183956,-15.5484356725317,-13.9462356183703,-15.3692988058438
11.184262381226,-7.45892971148417,-18.2363880187941,3.29157737630736,-21.6853182174172,-39.9495557641087,-8.93297213680329,65.3698719283626,-14.4241766734052,-13.4093404848276,-15.6511889271243
12.462242307633,-7.55216620356838,-18.1885598408988,3.24947454687359,-21.5283812661778,-39.4635889049612,-9.02327088119063,65.8410578064411,-13.2267695341451,-12.866706186762,-15.9048478795676
13.7742527942847,-7.64661997901085,-18.1363272569114,3.20387441689587,-21.35557984954,-38.9313989684778,-9.11624340155546,66.3685502935042,-11.9571207366213,-12.3239608326476,-16.1253544278745
15.1117631270001,-7.74212069716992,-18.0793967738004,3.15422975312681,-21.1664267778446,-38.3512333241334,-9.20997177448752,66.9544313706928,-10.6166519527437,-11.7865268030712,-16.3082706596759
16.4658353024505,-7.83849998708497,-18.0174736057303,3.09999233283388,-20.9605318562508,-37.7215634740704,-9.3024750038549,67.6005489330924,-9.20735667306134,-11.2594632894498,-16.4497838066813
17.8272051771597,-7.93558887421313,-17.9502618734162,3.04062722269627,-20.7376230981191,-37.0411084897438,-9.39174516985196,68.308456402702,-7.73186772447932,-10.7473270899059,-16.5468304447943
19.1863746702906,-8.03321482373391,-17.8774641212125,2.97562727501163,-20.4975681357508,-36.3088565083623,-9.47578165969522,69.0793397436177,-6.1935324158212,-10.2540584917511,-16.5971954421108
20.5337117717413,-8.1311984805593,-17.7987801391712,2.90452730589368,-20.2403945931197,-35.5240845200956,-9.55262257387392,69.9139329341384,-4.5964895055308,-9.78289767393656,-16.5995789440143
21.8595556493313,-8.22935020198923,-17.713905129894,2.82691741060177,-19.9663081502872,-34.6863767297672,-9.6203726787224,70.8124242532175,-2.94573959388356,-9.3363351155731,-16.5536263494638
23.1543244741456,-8.32746649893929,-17.622527307967,2.74245490023607,-19.6757071069049,-33.7956417580526,-9.6772275952052,71.7743572029977,-1.24719831886463,-8.91609714982982,-16.4599185478178
24.4086237962804,-8.42532652539529,-17.5243250600088,2.65087441223889,-19.3691924280208,-32.852128857181,-9.72149425239352,72.7985314223866,0.492279608559671,-8.52316528645694,-16.3199224433679
25.6133534625005,-8.52268878421051,-17.4189638242984,2.55199584780086,-19.0475725008158,-31.856443167373,-9.751607958706,73.8829104033635,2.26491742956545,-8.15782552296078,-16.1359046993624
26.7598112054586,-8.61928824742836,-17.3060928696439,2.44572990924744,-18.7118621140549,-30.8095598522281,-9.76614671471387,75.0245440035768,4.06208442540201,-7.81974186962575,-15.9108143449078
27.8397911696006,-8.71483410833723,-17.1853421642349,2.33208113220503,-18.3632754695544,-29.7128367428319,-9.76384356829568,76.219514421071,5.87442116586316,-7.50804698347651,-15.6481420829028
28.8456757818036,-8.80900837620964,-17.0563195291747,2.21114841630476,-18.0032133339373,-28.5680249069794,-9.7435978704061,77.4629142214896,7.69202231514048,-7.2214423015916,-15.3517655652387
29.7705195302446,-8.90146549162473,-16.9186082707036,2.0831231509257,-17.6332447278457,-27.377276357496,-9.70448622844508,78.7488639862791,9.50467055588419,-6.95830040993464,-15.0257904265342
30.6081233849112,-8.99183309198505,-16.7717654803419,1.94828511350397,-17.2550838096862,-26.1431479445234,-9.64577379390717,80.0705750732966,11.3021082777085,-6.71676345743726,-14.6743964841624
31.3530987774496,-9.07971400505735,-16.6153211819789,1.8069963887682,-16.8705628191233,-24.8686003698592,-9.56692628280338,81.4204598832999,13.0743279488981,-6.49483297856471,-14.3016973376551
32.0009202552664,-9.16468949727475,-16.4487784882951,1.65969361227038,-16.4816020864203,-23.5569912432177,-9.4676228294173,82.7902881283463,14.8118587318177,-6.29044821069343,-13.9116198432473
32.5479661326029,-9.24632375365014,-16.2716149068435,1.50687887383561,-16.0901781833912,-22.2120611843551,-9.34776943918865,84.171383314453,16.5060266814514,-6.10155160033079,-13.5078078515974
32.9915466767428,-9.32416952030346,-16.0832849102074,1.34910962520201,-15.6982912932219,-20.8379121617625,-9.20751246706869,85.5548495362961,18.1491688878833,-5.92614149462393,-13.0935524242629
33.3299195872167,-9.39777480277555,-15.8832238550949,1.18698792788842,-15.3079328177945,-19.4389775391355,-9.04725124283645,86.9318153377631,19.7347875817372,-5.76231293214432,-12.6717486952341
33.5622927462412,-9.46669048248586,-15.6708533015557,1.02114936150269,-14.9210541385499,-18.0199836577332,-8.86764873379703,88.2936793489096,21.2576373784055,-5.60828797951899,-12.2448777837937
33.6888144359409,-9.53047868313053,-15.4455877465428,0.852251894954534,-14.5395373230486,-16.585903189456,-8.66963900696166,89.6323420111265,22.7137461471469,-5.46243725549691,-11.815010814852
33.7105514284269,-9.58872168350985,-15.2068427466541,0.680965003642501,-14.1651684437065,-15.141900919898,-8.45443024002968,90.9404090236892,24.1003762492716,-5.32329422525445,-11.3838312205707
33.6294555548913,-9.64103113598819,-14.9540443622222,0.507959292251905,-13.7996140549479,-13.6932730318661,-8.22350213336122,92.2113549723348,25.4159372854256,-5.18956364590585,-10.9526710696448
33.4483195460455,-9.68705731836115,-14.6866398085685,0.3338968536278,-13.4444012564957,-12.2453813301228,-7.97859678729176,93.4396394789007,26.6598637191077,-5.06012531269983,-10.5225571322176
33.1707231052239,-9.72649812755407,-14.4041091528742,0.15942255908577,-13.1009016480609,-10.8035841502631,-7.72170241807917,94.6207725495998,27.8324709627692,-4.93403407629566,-10.0942626519246
32.8009703243517,-9.759107518056,-14.1059778498647,-0.014843565206737,-12.770319353699,-9.37316590373768,-7.45502966959335,95.7513300020311,28.9348022065258,-4.81051699865536,-9.66836127812261
32.3440196791184,-9.78470309540685,-13.7918298659428,-0.188312766596517,-12.4536831663765,-7.95926731062193,-7.1809807061232,96.8289234292328,29.9684760475172,-4.68896845895011,-9.2452802339682
31.8054079409044,-9.80317259443826,-13.4613210969957,-0.360432737141207,-12.1518427399301,-6.56681835719745,-6.90211170942259,97.8521318009017,30.9355424076803,-4.56894396812776,-8.82535048109162
31.1911694174783,-9.81447900286848,-13.1141927399736,-0.530691510329737,-11.865468641784,-5.20047589202195,-6.62108981254243,98.8204033890142,31.8383517359991,-4.45015337668495,-8.40885231254796
30.5077519808808,-9.81866413211979,-12.7502842377538,-0.698620104788401,-11.5950559806848,-3.86456755375268,-6.34064584558424,99.7339372868597,32.6794403390095,-4.33245405365119,-7.99605540301749
29.7619313583697,-9.815850486224,-12.3695453895305,-0.863793969322663,-11.3409312440199,-2.56304342303247,-6.06352451214948,100.593553532103,33.4614329856879,-4.21584446471166,-7.5872528318982
28.9607251504253,-9.80624133327144,-11.9720472132624,-1.02583331193326,-11.1032619222981,-1.29943643064767,-5.79243374210146,101.400559969598,34.1869626995424,-4.10045838074812,-7.18278895098673
28.1113079987138,-9.79011893948651,-11.5579911672221,-1.18440241855825,-10.8820684641573,-0.0768321611222126,-5.52999497396106,102.156622730348,34.8586068285943,-3.98655972385533,-6.7830811901981
27.2209292571712,-9.76784098184198,-11.1277163843205,-1.33920808315604,-10.6772380891058,1.1021517062782,-5.27869601819193,102.863645763459,35.4788379928055,-3.87453784019278,-6.38863599893886
26.2968344220999,-9.73983521036513,-10.68170463987,-1.48999727969466,-10.4885399798737,2.23537644978487,-5.04084795836845,103.523663397229,36.0499882663606,-3.76490280670124,-6.00005914099622
25.3461914539476,-9.70659248631419,-10.2205828496722,-1.63655421281086,-10.3156413767977,3.32118430335258,-4.81854728419836,104.138748536212,36.5742248884948,-3.65828024766291,-5.61806053467111
24.3760229763595,-9.66865837751346,-9.74512296832648,-1.7786968914834,-10.1581241028458,4.35839210634657,-4.61364414421956,104.710937892817,37.0535358555161,-3.55540506881647,-5.24345378683279
23.3931451697241,-9.62662354562445,-9.25623921897582,-1.91627337950512,-10.0155010628963,5.34627748537404,-4.42771728082801,105.242174638678,37.4897238849169,-3.45711352137158,-4.87715053124417
22.4041139898252,-9.58111320739935,-8.75498263349877,-2.04915788547409,-9.88723228871978,6.28455854797322,-4.26205588852031,105.734268048241,37.8844074225482,-3.36433308430175,-4.52014966768941
21.4151791408841,-9.53277598664194,-8.24253292183532,-2.1772468603175,-9.77274014468967,7.17336809998233,-4.11764834021768,106.18886908279,38.239027549681,-3.27806978227689,-4.17352162595925
20.4322460201697,-9.48227249046148,-7.72018773187012,-2.30045526900455,-9.67142336926815,8.0132233818001,-3.99517747667192,106.607460407107,38.554859808522,-3.1993927149775,-3.83838785847492
19.4608456328503,-9.43026394113562,-7.18934941660529,-2.41871319157745,-9.5826697014471,8.80499227635167,-3.89502196416947,106.991359021512,38.8330300884556,-3.12941574542763,-3.51589590263816
18.5061122556262,-9.37740117661211,-6.65150949273188,-2.53196288209611,-9.50586692250688,9.54985688971152,-3.81726310108598,107.341729505538,39.0745338035195,-3.06927646698017,-3.20719054486308
17.5727684111482,-9.32431430384269,-6.10823104562101,-2.64015637033029,-9.44041221967486,10.2492753485026,-3.76169638961023,107.659605779953,39.280257650676,-3.02011272130136,-2.91338184346304
16.6651165080292,-9.27160325462506,-5.56112940395149,-2.74325363691617,-9.38571983857449,10.9049425965924,-3.72784717270782,107.945919276466,39.4510032684156,-2.98303705935938,-2.63551099641634
15.7870363099408,-9.21982945570054,-5.01185147224881,-2.84122134104652,-9.34122703411262,11.5187509112312,-3.71498965521008,108.201531442766,39.5875121169683,-2.95910963254023,-2.3745152409151
14.9419872295211,-9.16950878278041,-4.46205417151868,-2.93403203891516,-9.30639836281655,12.0927508020707,-3.72216867174958,108.42726859594,39.6904908870256,-2.94931009611074,-2.13119312007871
14.1330143081381,-9.12110592004974,-3.91338249336711,-3.0216638031522,-9.28072839430983,12.6291129080234,-3.74822362040107,108.623957266696,39.7606367311417,-2.95450922134655,-1.90617153474004
13.3627566530652,-9.07503019242435,-3.36744771521452,-3.10410013923933,-9.26374296208048,13.1300914620968,-3.79181403478141,108.792458347929,39.7986616121415,-2.9754410464252,-1.69987601276463
12.6334570749727,-9.03163288075589,-2.82580634521068,-3.18133009371227,-9.25499912195831,13.5979898428331,-3.85144631366221,108.933698569642,39.8053150791982,-3.01267653240675,-1.51250557972697
11.9469717203829,-8.99120597675948,-2.28994035471021,-3.25334845702512,-9.25408402937454,14.035128660614,-3.92550117016545,109.048698058786,39.7814048154394,-3.06659980167145,-1.34401350551223
11.3047786486532,-8.95398229191856,-1.76123920541101,-3.32015597867534,-9.26061297019334,14.4438167314657,-4.01226140147506,109.138592997103,39.7278143528815,-3.13738809464494,-1.19409502805236
10.7079845840456,-8.92013680668361,-1.24098409114279,-3.38175953566321,-9.27422678111884,14.8263251776562,-4.10993960334656,109.204652655063,39.6455174242289,-3.22499656500304,-1.06218291461549
10.1573294967103,-8.88978913086539,-0.730334708259707,-3.43817223096815,-9.29458888162982,15.1848647823348,-4.21670545465776,109.24829034787,39.5355885157256,-3.32914892730241,-0.947451416503809
9.65318923004397,-8.86300693804746,-0.230318762366218,-3.48941344413416,-9.32138211739465,15.521566630127,-4.33071218572831,109.271068119445,39.3992092926187,-3.44933476477965,-0.84882881555995
9.19557706074471,-8.83981023073608,0.258175679226313,-3.53550889917956,-9.35430558671184,15.8384659889818,-4.45012184057824,109.27469520141,39.237670680075,-3.58481400491074,-0.765018366280822
8.78414576895465,-8.82017628417523,0.734404971071167,-3.57649083953421,-9.39307158811843,16.1374893258948,-4.57312896604589,109.26102051095,39.0523704973317,-3.73462870109747,-0.694527025221242
8.4181923725052,-8.80404510325236,1.19777187596072,-3.61239839751054,-9.43740279454517,16.4204442990888,-4.69798241694201,109.23201964367,38.8448066685936,-3.89762185731115,-0.635700953833508
8.09666796559994,-8.79132521138977,1.64782489746896,-3.64327822256231,-9.48702973314839,16.6890125339613,-4.82300504581064,109.189776985552,38.61656617641,-4.07246263864139,-0.586766413585599
7.81819492602173,-8.78189957886516,2.08425516653381,-3.66918540070206,-9.54168863150625,16.9447449694158,-4.94661112474356,109.136463709827,38.3693100794003,-4.25767696236089,-0.545874382407611
7.58109301542689,-8.77563149647911,2.506891140141,-3.69018466738609,-9.60111967753471,17.1890595511665,-5.0673214053668,109.074312533953,38.1047550755036,-4.45168218946678,-0.511147045663352
7.38341463606638,-8.77237021117925,2.91569140698736,-3.7063518932807,-9.66506572943686,17.4232410439878,-5.18377575763544,109.005590181289,37.8246522416704,-4.65282444658251,-0.480724271864346
7.22298794415234,-8.77195616078182,3.31073592217803,-3.71777580737057,-9.73327150332233,17.6484427311212,-5.29474334634342,108.932568515733,37.5307637124671,-4.8594170005172,-0.452808270501189
7.09746501975781,-8.77422567059469,3.69221601318802,-3.72455991241823,-9.80548326180815,17.8656897643572,-5.39913031622235,108.857495295818,37.2248381676471,-5.06977808127191,-0.425704830224686
7.00437125763307,-8.7790150027968,4.06042350992615,-3.72682453924186,-9.88144902663876,18.07588392542,-5.49598496895893,108.782565433169,36.9085860743821,-5.28226660935558,-0.397859827761633
6.94115186876551,-8.78616368080468,4.41573934650871,-3.72470897368765,-9.96091933730873,18.2798095637842,-5.58450043196218,108.709893547496,36.583655662343,-5.49531443517076,-0.367890053128224
6.90521194676505,-8.79551704766515,4.75862195760763,-3.71837357130821,-10.0436485686318,18.4781404915412,-5.66401484225138,108.641488495143,36.2516105878614,-5.70745393754434,-0.334607778859226
6.8939477900805,-8.80692805968691,5.08959575151303,-3.70800175208051,-10.129396797207,18.6714476395795,-5.73400910351803,108.579230418635,35.9139101576161,-5.91734013886291,-0.297038870791904
6.90476874111738,-8.82025836036196,5.40923989441992,-3.69380174694363,-10.2179321684192,18.8602073027988,-5.79410232371798,108.524850726824,35.5718928296187,-6.12376684869599,-0.254434561504211
6.93511032076978,-8.83537871795021,5.71817759476402,-3.67600795621499,-10.3090336681271,19.0448098176115,-5.84404510453679,108.479915273613,35.2267635011019,-6.32567671046613,-0.206277261362538
6.98244059200355,-8.85216893468838,6.01706603652325,-3.6548817821866,-10.4024941583292,19.2255685202903,-5.88371092791252,108.445810863778,34.8795848552272,-6.52216536134385,-0.152280953519517
7.04426231628512,-8.87051734294434,6.30658707458893,-3.63071181604234,-10.4981235023966,19.4027288317818,-5.91308595887768,108.423735087371,34.5312727990174,-6.71248020136387,-0.0923868056444941
7.11811356326752,-8.89031999827565,6.58743877006683,-3.60381328999215,-10.5957515837164,19.5764773072315,-5.93225764734283,108.414689381515,34.1825958028877,-6.89601449445099,-0.0267546409131938
7.20156910261073,-8.9114796689471,6.86032780769317,-3.57452674325133,-10.6952310118859,19.7469504827235,-5.94140255761533,108.419475147526,33.8341777615407,-7.07229768617151,0.0442491372618332
7.29224430775085,-8.93390471039033,7.12596280358349,-3.54321588828488,-10.7964393164806,19.9142433549698,-5.94077388145737,108.438692711347,33.4865038495085,-7.24098291295137,0.120066651395644
7.38780259770883,-8.95750790248869,7.38504848159374,-3.51026469618309,-10.8992804495587,20.0784173452335,-5.9306890961669,108.472742899331,33.1399287483816,-7.40183268912409,0.199966254959415
7.48596676522841,-8.98220531836232,7.63828067129961,-3.47607374522501,-11.0036854474421,20.2395076237374,-5.91151821071429,108.521831001391,32.7946865732082,-7.55470369793774,0.283062473527392
7.58453397175423,-9.0079152858712,7.88634205971559,-3.44105589603893,-11.1096121360932,20.3975297015664,-5.88367299989943,108.585972904318,32.4509018168257,-7.69953150505957,0.368337868005332
7.68139377099382,-9.03455749575988,8.12989861252852,-3.40563137286293,-11.2170438066229,20.552485233186,-5.84759756076918,108.665003196315,32.1086006605656,-7.83631588768474,0.454666535434228
7.77454825708725,-9.06205230158444,8.36959656940045,-3.3702223451891,-11.3259868407994,20.7043670128807,-5.80376043957899,108.758585064214,31.7677220655324,-7.96510734431074,0.540838977422296
7.86213330275483,-9.09032024700843,8.60605991205646,-3.33524711832763,-11.4364673246502,20.8531631867551,-5.75264847399898,108.866221821479,31.4281281540054,-8.08599522086255,0.62558806997903
7.94243982894428,-9.11928184717029,8.83988820304683,-3.3011140543658,-11.5485267422338,20.9988607319263,-5.69476237935567,108.987269915762,31.0896135055164,-8.19909776218846,0.707615863471207
8.01393410058,-9.1488576418765,9.07165469718442,-3.26821535447541,-11.6622168875386,21.1414482739942,-5.63061398965786,109.12095327137,30.7519131187223,-8.3045542863412,0.785620927413767
8.07527614677125,-9.17896852738842,9.30190463796577,-3.23692083759531,-11.7775941703709,21.2809183233079,-5.56072495752479,109.266378824449,30.4147089255462,-8.40251959028843,0.858325932954533
8.125335537967,-9.20953635998304,9.53115366986214,-3.20757184883172,-11.8947135209247,21.4172690092275,-5.4856266351992,109.422553103352,30.077634881852,-8.49316062294429,0.924505139922282
8.16320390304912,-9.24048480926571,9.75988632412356,-3.18047542496707,-12.0136221158523,21.5505053797253,-5.40586081042402,109.588399692271,29.7402807784644,-8.57665539105902,0.983011427844077
8.18820372767651,-9.27174042370404,9.98855456509522,-3.15589883754093,-12.1343531574463,21.6806403175687,-5.32198095619452,109.762777395858,29.4021949934925,-8.65319398879853,1.03280248288716
8.1998931368613,-9.30323385595756,10.2175764059208,-3.13406462959073,-12.2569199404561,21.8076951152519,-5.23455366448064,109.944498900626,29.0628864377073,-8.72298156462195,1.07296572960642
8.19806652792962,-9.33490118164726,10.4473346092345,-3.11514626112239,-12.3813104392734,21.9316997558597,-5.14415996266353,110.132349708169,28.7218259475211,-8.78624296413821,1.10274158353382
8.18275108411363,-9.36668523316044,10.6781754815227,-3.09926447823545,-12.5074826388293,22.0526929620582,-5.05139625347318,110.325107098938,28.3784473748238,-8.84322872309826,1.12154459987703
