Finger Velocity,Scap_X,Scap_Y,Scap_Z,Shoulder horiz abd-adduction,Shoulder flexion-extension,Shoulder internal-external rotation,elbow flexion-extension,forearm pronation-supination,wrist flexion-extension,wrist radial-ulnar deviation
0.568209685253158,-11.1615099406619,-14.2098140843253,8.10224134633269,-22.9909274625388,-47.0859089023737,-9.62452520711028,71.0898636218177,-17.6164234861075,23.7546262206392,-41.8214320230149
0.712404452253752,-11.1887920573309,-14.2330524730548,8.08044975070625,-22.9875590066775,-47.037954515827,-9.6294067094505,71.1774538159748,-17.5064825332634,23.8557621338397,-41.940188928823
0.942602374899886,-11.2173762504453,-14.2558630577782,8.05581429654222,-22.9668678782708,-46.9676068816443,-9.62302148923306,71.25497040846,-17.3847966995767,23.9547541073111,-42.0593307915442
1.23817813919889,-11.2468902646205,-14.2778080977243,8.02840449156173,-22.9255713539007,-46.8718545709553,-9.60312169871597,71.3176065240277,-17.2519987889334,24.0494833124572,-42.1765228148244
1.58610031481903,-11.2768537707106,-14.2984151980942,7.99835126707386,-22.860399314745,-46.7476902087984,-9.56745416834432,71.3600861904015,-17.1089803031014,24.1376825282767,-42.2892098075283
1.97891972695646,-11.3066715988972,-14.3171837197693,7.96584904633548,-22.7681739675442,-46.5921464641064,-9.5138195230511,71.3766992446472,-16.9568957657717,24.2169713122306,-42.394649198471
2.41183502852445,-11.3356287914689,-14.3335924498985,7.93115632635716,-22.645893005961,-46.4023306555147,-9.44013617049792,71.3613453439204,-16.797162193821,24.284893448681,-42.489948235265
2.88111430199809,-11.362887788735,-14.347108381331,7.89459463208195,-22.490813120006,-46.1754574986358,-9.34450704579681,71.3075869489155,-16.6314537095457,24.3389547573099,-42.572103883938
3.38334670007931,-11.3874880371613,-14.3571963874097,7.85654574147151,-22.3005305078983,-45.908879813379,-9.22528667124825,71.2087111169701,-16.4616914879274,24.3766593707305,-42.6380438924256
3.91508837829654,-11.4083482742135,-14.363329526961,7.81744712798788,-22.0730550010411,-45.6001173033142,-9.08114590797356,71.0577999081079,-16.2900294006938,24.3955428233657,-42.6846676055945
4.47269485910268,-11.4242716972822,-14.3649996768616,7.77778562263049,-21.8068745968785,-45.2468837764154,-8.91113175652292,70.847809153132,-16.1188358191274,24.3932007423496,-42.7088854229537
5.05224678553575,-11.4339541631206,-14.3617281692015,7.73808935725185,-21.5010075966784,-44.8471133687633,-8.71471970227142,70.5716552437573,-15.9506720399911,24.3673125617941,-42.7076562196399
5.64952629426125,-11.4359954904267,-14.3530761084315,7.69891810896974,-21.1550401306962,-44.3989864399043,-8.49185637985554,70.2223094729971,-15.788267687492,24.3156603875056,-42.6780224985678
6.26002327296407,-11.4289138545006,-14.3386540607997,7.66085221840752,-20.7691475719871,-43.9009558177644,-8.24299072098859,69.7928992785698,-15.6344932239771,24.2361437604256,-42.6171433837446
6.87896076730789,-11.4111631737943,-14.3181308413843,7.6244803012549,-20.344099136027,-43.3517739760836,-7.96909221622634,69.2768155258861,-15.4923294018425,24.1267914704128,-42.5223257318613
7.50133352973386,-11.3811532995313,-14.2912411689704,7.59038601364129,-19.8812457757843,-42.7505215309191,-7.67165542162865,68.6678247139511,-15.3648331598121,23.9857717239461,-42.3910536557652
8.12195602189309,-11.3372727374123,-14.2577920111643,7.55913416764345,-19.3824922507643,-42.0966371569618,-7.35269033332844,67.9601847019057,-15.2550991744888,23.8114019337461,-42.2210167099556
8.73551735637492,-11.2779135588769,-14.2176674968361,7.53125652494565,-18.8502549225343,-41.3899486701236,-7.01469870402881,67.1487622447189,-15.1662160948846,23.6021592729177,-42.0101369738511
9.33664127234226,-11.20149809968,-14.1708323262213,7.50723762578329,-18.2874073714977,-40.6307046282695,-6.660636768481,66.2291503083068,-15.101216481751,23.3566929950707,-41.7565953239597
9.91994956303267,-11.1065069946972,-14.1173336580222,7.48750103728821,-17.6972163177878,-39.8196054003098,-6.29386517753882,65.1977828234512,-15.0630196976914,23.0738393984625,-41.4588572998143
10.4801275508969,-10.9915080582107,-14.0573014956711,7.47239642766646,-17.0832705529323,-38.9578322804247,-5.91808721987219,64.0520442474999,-15.0543674705628,22.7526402095231,-41.1156990986386
11.011990311387,-10.8551854872181,-13.990947629506,7.46218788535236,-16.4494056496481,-38.047072913039,-5.53727665079534,62.7903710438788,-15.07775256511,22.3923650629364,-40.7262343344407
11.5105484183392,-10.6963688410517,-13.9185632163702,7.45704390078231,-15.7996271277254,-37.0895410753107,-5.15559666520235,61.4123419774284,-15.1353418967506,21.9925386246726,-40.2899422295795
11.9710720441857,-10.5140612339465,-13.8405150937026,7.45702941001261,-15.1380345363318,-36.0879887635047,-4.77731176138802,59.9187539848853,-15.2288964383017,21.5529726834984,-39.806697827005
12.389152308935,-10.3074661685959,-13.7572409347864,7.46210026245421,-14.4687485922381,-35.0457085720708,-4.40669445766492,58.3116803524152,-15.3596913229059,21.0738031723628,-39.2768045676157
12.7607588396296,-10.0760124386695,-13.6692433595461,7.47210041819878,-13.7958431166604,-33.9665245592878,-4.0479290540898,56.5945080598644,-15.5284405295481,20.5555315588632,-38.7010291358585
13.0822925802118,-9.81937653684167,-13.5770831237323,7.48676210362453,-13.1232830747305,-32.8547701685407,-3.70501487938386,54.7719514752697,-15.7352313143341,19.9990693874873,-38.0806378437444
13.3506329818118,-9.53750202207035,-13.4813715186323,7.50570905924541,-12.4548695812686,-31.7152523097649,-3.38167171682622,52.8500401327027,-15.9794739599451,19.4057839977646,-37.4174330343069
13.5631788055073,-9.23061532640032,-13.3827621218586,7.52846290498772,-11.794192332588,-30.5532013737686,-3.0812503341363,50.8360791119914,-16.2598722992666,18.7775426138228,-36.7137870939712
13.7178818827945,-8.89923751890449,-13.281942045226,7.55445253052408,-11.1445895846398,-29.374207711316,-2.80665120535557,48.7385815420041,-16.5744197116902,18.116751162379,-35.9726707551878
13.8132733019476,-8.54419159363047,-13.1796228272113,7.58302629910949,-10.5091155376093,-28.1841459068312,-2.56025454844626,46.5671739140407,-16.9204238638425,17.4263834449655,-35.1976715818127
13.8484816192734,-8.1666049096108,-13.0765311151375,7.61346674113939,-9.89051480773858,-26.9890889516844,-2.34386465103171,44.3324761226579,-17.2945614609577,16.7099958451061,-34.3929980423084
13.8232428308203,-7.7679064840045,-12.9733992763678,7.64500731590572,-9.2912035613258,-25.7952151037691,-2.158671078101,42.0459593231977,-17.6929618972203,15.9717227931579,-33.5634645761745
13.7379019800193,-7.34981892484122,-12.8709560688953,7.67685074060439,-8.71325684116645,-24.6087107354334,-2.00522874445217,39.719785676319,-18.1113162288897,15.2162488736267,-32.7144536659503
13.5934064175221,-6.91434488840078,-12.7699174910719,7.7081883252811,-8.15840161686007,-23.4356727582669,-1.88345802306203,37.3666347268378,-18.5450056573954,14.4487547405304,-31.8518521503945
13.3912908686605,-6.46374805819323,-12.6709779197764,7.73821971153128,-7.6280151219722,-22.2820142328805,-1.79266510900752,34.9995214691228,-18.9892419959072,13.6748357915061,-30.9819607690013
13.1336545989823,-6.00052876696208,-12.5748016378357,7.76617239309902,-7.12312809068427,-21.1533765187828,-1.73158184634174,32.6316110803798,-19.4392116335462,12.9003946647145,-30.1113780561686
12.8231310968738,-5.52739451773375,-12.4820148455866,7.79132040026499,-6.64443256434832,-20.0550508202435,-1.698423240819,30.2760349182121,-19.8902144339862,12.13151084329,-29.2468619795624
12.4628508121551,-5.04722580108796,-12.3931982468745,7.81300155877738,-6.19229399245792,-18.9919112956043,-1.69096001065484,27.9457117879046,-20.3377898039351,11.3742927347672,-28.3951748711438
12.0563975987851,-4.56303774927551,-12.3088802939746,7.8306327886714,-5.76676738810394,-17.9683611006547,-1.70660284292489,25.6531778112006,-20.7778236985803,10.6347193153209,-27.5629189701354
11.6077596067916,-4.07793830816949,-12.2295311675527,7.84372298711008,-5.36761730259204,-16.9882919203271,-1.74249457343742,23.4104275796413,-21.2066323458307,9.91847961460117,-26.7563710773111
11.1212754519582,-3.59508373830148,-12.1555575583265,7.85188313729783,-4.99434135291078,-16.0550567874102,-1.79560630975704,21.2287687219227,-21.621020671899,9.2308188223933,-25.9813252626519
10.6015765608221,-3.11763236800293,-12.0872983098141,7.85483339488081,-4.64619697087872,-15.1714553555217,-1.86283355599629,19.118691579752,-22.0183155163672,8.57639951881764,-25.2429521874762
10.0535266428265,-2.64869760575666,-12.0250209797195,7.85240701745786,-4.32223094844404,-14.3397303265289,-1.94108864446737,17.0897553514406,-22.3963755136532,7.9591854519143,-24.545682399597
9.48215928137482,-2.19130126706155,-11.9689193828757,7.84455111809768,-4.02131123845727,-13.5615734424096,-2.02738620413536,15.1504917810978,-22.7535808423384,7.3823535345873,-23.8931190668627
8.89261466220938,-1.7483282784164,-11.9191121890493,7.83132433631684,-3.74216035140519,-12.8381393275075,-2.11891896501963,13.3083271938018,-23.0888068338606,6.84823755056737,-23.2879832884875
8.29007647334459,-1.32248378623668,-11.8756426563771,7.81289162410211,-3.48338958879887,-12.1700654882255,-2.21312186082846,11.569523369794,-23.4013856971993,6.35830473099111,-22.7320926826625
7.67971001982125,-0.916253623825114,-11.8384795750374,7.78951643504672,-3.2435332913515,-11.5574969199854,-2.30772308908763,9.93913740631632,-23.691060437583,5.91316415007131,-22.2263716922081
7.06660260573397,-0.531868980639102,-11.8075194696652,7.76155067914154,-3.02108226119023,-11.0001140087997,-2.40078146694334,8.42100035278471,-23.9579345485784,5.5126040036853,-21.7708902099485
6.4557072570431,-0.171275984091513,-11.7825900656637,7.72942286307936,-2.81451553991601,-10.4971627124535,-2.49071004568349,7.01771405793629,-24.2024203694862,5.1556534270587,-21.3649258408003
5.85179091197903,0.163889244169638,-11.7634549730983,7.69362487390866,-2.62232978497947,-10.047486322306,-2.57628649309869,5.7306653719041,-24.4251882443527,4.84066364212206,-21.0070444237852
5.25938832804243,0.472319647875292,-11.7498194918257,7.65469788003315,-2.44306558199768,-9.64955839946775,-2.65665120251711,4.56005662548342,-24.6271178998763,4.56540288641177,-20.6951932842649
4.68276321446571,0.75305015080993,-11.7413373989998,7.613217817481,-2.27533015239347,-9.30151671648048,-2.73129443241604,3.50495116753083,-24.8092528574495,4.32715969236385,-20.426801974871
4.12587863139279,1.00546430717793,-11.7376185477846,7.5697809037574,-2.11781605330328,-9.00119819999138,-2.80003402318203,2.56333266567175,-24.9727582549425,4.12284955830115,-20.1988858745334
3.59237977934117,1.22929470141443,-11.738237084609,7.52498958200482,-1.96931561394213,-8.74617495567642,-2.862985386553,1.73217684146447,-25.1188821860518,3.94912076061777,-20.0081488172179
3.08559453518773,1.42461723524366,-11.7427400801664,7.47943925159999,-1.82873101034533,-8.53379146549722,-2.92052552921739,1.00753429397776,-25.2489205510135,3.80245587305672,-19.8510817774802
2.60856184775818,1.59183955293522,-11.7506563632837,7.43370609244021,-1.69508004884173,-8.36120298665936,-2.97325286553589,0.384623043700157,-25.3641854165514,3.67926639068612,-19.7240554460971
2.16410872335302,1.73168395664455,-11.7615053445784,7.38833623789775,-1.5674978995624,-8.22541506570593,-3.02194450466853,-0.142070615181287,-25.465976958455,3.575978669059,-19.6234052487195
1.75502162944297,1.84516525421185,-11.7748056196972,7.34383649085504,-1.44523517946908,-8.12332393093667,-3.0675125737963,-0.578684441766475,-25.5555591548828,3.48911015954903,-19.5455079826519
1.38442128484098,1.93356406609717,-11.7900831523788,7.30066670691462,-1.32765291504817,-8.05175736627301,-3.11096097433009,-0.931867349978501,-25.6341394630625,3.41533558160281,-19.4868497337596
1.05661674779384,1.99839619899792,-11.8068788561518,7.25923389481775,-1.21421500852635,-8.00751552352835,-3.15334377832302,-1.2086630096187,-25.7028527114032,3.35154313537959,-19.4440850398746
0.779143353998662,2.04137876928864,-11.82475541857,7.21988801580019,-1.10447888361349,-7.98741101604743,-3.19572627225054,-1.41639180605998,-25.7627493602368,3.29488109558648,-19.414087389973
0.567329242832546,2.06439382449294,-11.8433032413223,7.18291940764186,-0.998084995771281,-7.98830756413004,-3.23914945269979,-1.56253313600586,-25.8147881378612,3.2427951895048,-19.3939911486479
0.448774303600658,2.06945026024926,-11.8621454011558,7.14855771767513,-0.894745859236855,-8.0071564326271,-3.28459857598952,-1.65461010035452,-25.8598328722487,3.19305712497594,-19.3812249417298
