Finger Velocity,Scap_X,Scap_Y,Scap_Z,Shoulder horiz abd-adduction,Shoulder flexion-extension,Shoulder internal-external rotation,elbow flexion-extension,forearm pronation-supination,wrist flexion-extension,wrist radial-ulnar deviation
0.493332910994606,-14.6519600346827,-16.6223037888361,6.45123647242773,-12.527409666626,-45.3289252931043,-2.87010653024579,67.8316516666872,-26.7166033344851,7.17519793269414,-28.1861503208398
0.783259818967645,-14.7340091307379,-16.6444114756426,6.30330380430711,-12.4704377853799,-45.1457735121552,-2.77991981405486,67.7889059716242,-25.9842880602392,7.98422858387347,-29.091830051334
1.10855086049221,-14.8215461986818,-16.6665284129795,6.14824308594157,-12.3827173551155,-44.9337951695422,-2.67939941166649,67.7191637500393,-25.2501084457408,8.84257627715281,-30.0577278136409
1.46832156984926,-14.9135139584421,-16.6881824020541,5.98756157880601,-12.2626382091709,-44.6905911685261,-2.56822755721873,67.6170782090955,-24.5211984350478,9.7411472757436,-31.0739153528178
1.86151454467649,-15.0086361074301,-16.7088558452473,5.82295104416758,-12.1091134800032,-44.4137892714692,-2.4462210893326,67.4769961011586,-23.8045715455617,10.6691564636262,-32.1283765141577
2.28669109148144,-15.1054199075895,-16.7279919692811,5.65626377645538,-11.9216252768755,-44.1010789896759,-2.31335457578424,67.2930184715551,-23.1069699190316,11.6143305395413,-33.2072209399759
2.741977830743,-15.2021635604878,-16.7450022074826,5.48948379449361,-11.7002520087917,-43.7502503097803,-2.16978032142312,67.0590729547466,-22.4347299551414,12.563209983445,-34.2950154057162
3.2250546626893,-15.2969685606157,-16.7592746060996,5.32469371797832,-11.4456755357586,-43.3592356682262,-2.01584395181577,66.7689969880159,-21.7936701802352,13.5015362576549,-35.3752182253766
3.73316067370952,-15.3877570843415,-16.7701830936967,5.16403800396181,-11.1591674342289,-42.9261543089209,-1.85209450151307,66.4166308054689,-21.1890051801696,14.4146991583308,-36.4306893842379
4.26311144547924,-15.4722943301214,-16.7770974310589,5.00968335197325,-10.8425548648791,-42.4493579058443,-1.67928829561628,65.9959185844761,-20.625287356293,15.2882105154975,-37.4442393083073
4.81132542344416,-15.5482155800076,-16.7793936430361,4.86377720096734,-10.4981677314432,-41.9274761323078,-1.49838636463871,65.5010156888496,-20.106376180529,16.1081666444789,-38.3991746147516
5.37385820592233,-15.6130576082743,-16.7764647235695,4.72840532882962,-10.128769907589,-41.3594607356635,-1.31054561848406,64.9263996300336,-19.6354327349018,16.8616640869011,-39.2798008741273
5.94644395637798,-15.6642939247534,-16.7677313982813,4.60554961907737,-9.73747818463316,-40.7446266428709,-1.11710445423831,64.2669821695073,-19.2149357729498,17.5371407682831,-40.0718499147876
6.52454319715659,-15.6993732122117,-16.7526527223528,4.49704707684375,-9.32767318116331,-40.0826886775945,-0.919563814761043,63.5182199055938,-18.8467144293396,18.1246259558544,-40.7628107226195
7.10339619783269,-15.7157602026162,-16.7307362844809,4.40455115667208,-8.90290671100019,-39.3737926013472,-0.719564895618604,62.6762207020367,-18.5319920801368,18.6158948476711,-41.3421560112439
7.67808109300542,-15.71097814165,-16.7015477834316,4.32949640764994,-8.46681001469386,-38.6185393806707,-0.51886468721427,61.7378433978552,-18.2714357347976,19.004534840156,-41.8014685595153
8.24357578106762,-15.6826519217952,-16.6647197468063,4.2730673481493,-8.02300684454322,-37.8180018076032,-0.319310344256165,60.700788368283,-18.0652056999837,19.2859387409258,-42.1344805765671
8.79482258046517,-15.6285509291437,-16.6199591767554,4.23617235822839,-7.57503471416085,-36.9737328403474,-0.122813042487196,59.56367667216,-17.9130010343995,19.4572445974994,-42.3370447467377
9.32679456027622,-15.546630651445,-16.5670539373785,4.21942323159752,-7.12627676923845,-36.0877652675937,0.0686784128632465,58.3261157131783,-17.8140974234013,19.5172424838643,-42.4070572303689
9.83456242159666,-15.4350721331039,-16.5058777427226,4.2231208708842,-6.67990580528339,-35.1626025234911,0.253204337927255,56.9887495564399,-17.7673754396683,19.4662662611106,-42.3443514220348
10.3133607875526,-15.2923184323199,-16.4363936579636,4.24724744834757,-6.23884104362137,-34.2012006891435,0.428821670447927,55.5532922815495,-17.7713386178589,19.3060840528964,-42.1505776958703
10.7586527639871,-15.1171073307102,-16.358656082556,4.29146519498208,-5.80571745596901,-33.2069419139662,0.593632734261995,54.022543032095,-17.8241222520842,19.0397959943018,-41.8290797162527
11.1661916603316,-14.9084996594368,-16.2728112357155,4.35512182600426,-5.38286675659069,-32.1835996802959,0.745815723549801,52.4003817567762,-17.9234952140531,18.6717425937541,-41.3847730183844
11.532078810479,-14.6659027294384,-16.1790962061082,4.43726245895331,-4.97230869120228,-31.1352965211269,0.883657123191801,50.6917450439558,-18.0668582643249,18.2074224708925,-40.8240271298106
11.8528165055835,-14.3890884785809,-16.077836655986,4.53664773171206,-4.5757509492874,-30.0664549881546,1.00558589833394,48.9025819331211,-18.2512431575953,17.6534147779245,-40.1545489823426
12.1253551429884,-14.0782060688076,-15.9694432847022,4.65177768490797,-4.1945958954164,-28.9817428585201,1.11020881775267,47.0397901361339,-18.4733171996948,17.0172995265586,-39.3852630295431
12.3471338057771,-13.7337887764842,-15.854407160403,4.7809208421079,-3.82995232689954,-27.8860137588586,1.19634579082773,45.1111337010119,-18.7293977074848,16.3075683696952,-38.5261824369924
12.5161136131714,-13.3567551155477,-15.733294027841,4.92214780706181,-3.48265058819749,-26.784244557834,1.26306366429801,43.1251437766531,-19.0154800285395,15.5335190348647,-37.5882659156112
12.6308033201987,-12.9484042149308,-15.6067377003436,5.07336860280907,-3.15325957808032,-25.6814710104873,1.3097066014286,41.0910047550461,-19.3272814588071,14.7051283829073,-36.5832560759924
12.6902767925131,-12.5104055410783,-15.4754326458108,5.23237290349529,-2.8421044480516,-24.5827232093707,1.33592099976936,39.0184286331253,-19.6603017016472,13.8329016780857,-35.523497343341
12.6941821355679,-12.0447831176369,-15.3401258765315,5.39687225544941,-2.54928408659401,-23.4929623959287,1.34167292637128,36.917520895233,-20.0098986517138,12.9276987379154,-34.42173415752
12.6427424130345,-11.5538944535817,-15.2016082473116,5.56454334704836,-2.27468778962129,-22.4170206077248,1.32725627572344,34.7986415145553,-20.3713765029843,12.0005407855573,-33.2908930172381
12.5367480439882,-11.0404044535789,-15.0607052567775,5.73307136445218,-2.01801080859462,-21.3595444900008,1.29329027850837,32.6722647632182,-20.7400817018734,11.062404636955,-32.1438545103311
12.3775411185906,-10.5072546523068,-14.9182674370092,5.90019246277165,-1.77876872322307,-20.3249443980311,1.24070557333121,30.548841383091,-21.1115012745345,10.1240128985552,-30.9932233984905
12.1669920146623,-9.95762818622979,-14.7751604116807,6.06373439485615,-1.55631079355483,-19.3173496748228,1.17071873758045,28.4386663149543,-21.4813576617942,9.19562980710269,-29.8511057779026
11.9074688298107,-9.39491098948434,-14.6322547059469,6.22165438018849,-1.34983260252597,-18.3405707197735,1.08479588605915,26.351754661441,-21.8456944296958,8.2868721077493,-28.7289022015164
11.6018002631691,-8.82264977329359,-14.4904154029276,6.37207336905382,-1.15838840439533,-17.3980681818677,0.984606624745547,24.2977279386588,-22.2009480447602,7.40654308910181,-27.6371245484762
11.2532326852699,-8.24450741877049,-14.3504917589293,6.51330596034126,-0.980903649818703,-16.4929293346598,0.87197024752139,22.2857120251269,-22.5440021897516,6.56249589868921,-26.5852426553574
10.8653822225203,-7.66421647747104,-14.2133069081298,6.64388535720649,-0.816188171384677,-15.6278514404948,0.74879655403732,20.3242476121089,-22.8722226652485,5.76152992150391,-25.5815646107472
10.4421827531514,-7.08553152693554,-14.0796478044866,6.76258288450225,-0.662950491940694,-14.8051317027129,0.617024016956907,18.4212134510821,-23.1834725619895,5.00932163652615,-24.6331524302315
9.98783076387609,-6.5121811632885,-13.9502555637466,6.86842174008513,-0.519813665564759,-14.0266632414369,0.478558206621289,16.5837623114194,-23.4761088940307,4.3103892161446,-23.7457727882227
9.50672805098069,-5.94782042511498,-13.8258163813899,6.9606848075054,-0.385332975564232,-13.2939364123705,0.335213372329314,14.8182693067682,-23.7489630930726,3.66808838786204,-22.9238807724356
9.00342326701601,-5.39598443166383,-13.7069532107812,7.0389165198452,-0.25801569200696,-12.6080447235855,0.188659884929306,13.1302921074394,-24.001308586035,3.0846358565192,-22.1706333853643
8.48255331626893,-4.86004398779134,-13.5942183854536,7.10291893204773,-0.13634293491786,-11.9696945966034,0.040379885669178,11.5245425050156,-24.232819081458,2.56115591256133,-21.4879287939296
7.94878559135778,-4.34316386415076,-13.4880873567935,7.15274232884189,-0.0187935084818374,-11.3792182608382,-0.10836700964769,10.0048688049687,-24.4435211974994,2.09774566023744,-20.876467071908
7.40676202342789,-3.84826440885803,-13.3889536940653,7.18867086058803,0.0961306188116183,-10.836589150853,-0.256566698355718,8.57424856204412,-24.6337447390064,1.69355448518344,-20.3358282834044
6.86104589512254,-3.37798708761321,-13.2971254622673,7.21120384670925,0.209877698535859,-10.3414392775156,-0.403461668932902,7.23479121639774,-24.8040733696608,1.34687384502645,-19.864564111325
6.31607234706844,-2.93466448190055,-13.2128230583649,7.22103349830559,0.323819128927576,-9.89307815532202,-0.548550222690636,5.98775022087759,-24.9552977382847,1.05523410092228,-19.4602997385525
5.77610350771005,-2.52029519834397,-13.1361785479847,7.21901987494426,0.439222737626775,-9.49051298183392,-0.691574503439345,4.83354426296756,-25.0883724087501,0.815505785724047,-19.1198432347936
5.24518921302015,-2.1365240567345,-13.0672365020575,7.20616390335578,0.557227326692841,-9.13246987543882,-0.832498529611633,3.7717871743542,-25.2043772926697,0.624003317952207,-18.8393002003226
4.72713438994435,-1.78462783064786,-13.0059562887291,7.18357925610398,0.678819423718162,-8.81741607870963,-0.971477847409194,2.80132608778869,-25.304483751036,0.476589652156963,-18.6141918107878
4.22547441185193,-1.46550671437374,-12.9522157345637,7.15246383047419,0.804813160497758,-8.54358311954546,-1.108822730754,1.92028734778022,-25.3899251434608,0.368780663727758,-18.4395746537456
3.74346019549131,-1.17968158581829,-12.9058160329957,7.11407149695501,0.935834120053535,-8.30899098236753,-1.24495704909915,1.12612960718308,-25.4619713589172,0.295848189137737,-18.3101608306469
3.28405567827509,-0.927297031990239,-12.8664877466758,7.06968471323007,1.07230786320996,-8.11147337080309,-1.38037501661594,0.415703442922402,-25.5219067383018,0.252920621021285,-18.2204367491409
2.8499519290415,-0.70813000709838,-12.833897724164,7.02058852606129,1.21445368005508,-7.9487041401739,-1.51559802622254,-0.214683294671207,-25.5710107712314,0.235079867888793,-18.1647789225967
2.44360513741371,-0.521603905466407,-12.807656734093,6.96804640662181,1.36228391822849,-7.81822494159435,-1.65113365207405,-0.769195310272326,-25.6105409946956,0.237453406974974,-18.1375650037016
2.06731126836228,-0.36680775047855,-12.7873276158397,6.91327828127539,1.5156090223927,-7.71747404787442,-1.7874386713177,-1.2523958996086,-25.6417176201897,0.25530013643085,-18.1332782596356
1.72334026991272,-0.2425201237996,-12.7724337552208,6.85744103048703,1.67404818275404,-7.64381622960908,-1.92488762108746,-1.66917032368366,-25.6657095506916,0.284088787250193,-18.1466037682457
1.4141698937333,-0.147237385421016,-12.762467711728,6.80161164036236,1.83704524764167,-7.59457343266612,-2.06374799665343,-2.02464772750437,-25.6836216014704,0.319567776342925,-18.1725147716077
1.14288128776591,-0.0792056651556978,-12.7568998433566,6.74677311443604,2.00388932169167,-7.56705589302952,-2.20416274673151,-2.32412285591493,-25.6964828941226,0.357825546001297,-18.2063478426858
0.913769039328432,-0.0364560402597744,-12.7551867917619,6.69380319598055,2.17373926098361,-7.5585932223637,-2.34614026787657,-2.5729788335745,-25.705236540477,0.395340614224367,-18.2438657755037
0.732985461968227,-0.0168422523369715,-12.7567797039871,6.64346591450776,2.34565110253882,-7.56656491102999,-2.48955167417008,-2.77661225938288,-25.7107308602341,0.429020738775246,-18.2813073827881
0.608010965107523,-0.0180802610333273,-12.7611320795646,6.59640594713454,2.51860734141189,-7.58842962587536,-2.6341347486488,-2.94036182016206,-25.7137124667772,0.456230785158477,-18.3154236807036
