Finger Velocity,Scap_X,Scap_Y,Scap_Z,Shoulder horiz abd-adduction,Shoulder flexion-extension,Shoulder internal-external rotation,elbow flexion-extension,forearm pronation-supination,wrist flexion-extension,wrist radial-ulnar deviation
1.39299571700837,-17.1139432192664,-13.4555991650472,9.1944718675218,-13.5780929622458,-45.2489814751032,-3.29073491037669,63.9332493087774,-26.844393920461,-6.3762463305456,-16.0915512047194
1.68545996112502,-17.1283904066513,-13.4584249493052,9.18615469431307,-13.661573177344,-45.2390533971879,-3.30479049106238,63.9470613767661,-26.5916184561845,-6.50006906901289,-15.9761121446378
1.99870456422095,-17.1425939147498,-13.4606244155551,9.17598224540159,-13.7466327090043,-45.2309874515526,-3.31733185259594,63.9654882596826,-26.2803008270626,-6.6571017080024,-15.8331148369746
2.32862766452627,-17.1564335425852,-13.4621441746819,9.16388616275985,-13.831621225807,-45.2248111055945,-3.32786390683555,63.9884483862158,-25.9067087275104,-6.84955986447371,-15.6609200449115
2.67135454902576,-17.1697878602076,-13.4629351306195,9.14981126180556,-13.9146640854223,-45.2204719183225,-3.33583972601805,64.015652283386,-25.4676073449523,-7.07951965781676,-15.458070066676
3.02304808582185,-17.1825359803718,-13.4629542577734,9.13371580287917,-13.9936746145083,-45.2178278314308,-3.34065800773698,64.0465796943051,-24.960340623975,-7.3489141214202,-15.2233100437302
3.37983075739604,-17.1945594138436,-13.4621663477273,9.11557134241972,-14.0663724478065,-45.2166382394751,-3.34166149218984,64.0804614575429,-24.3829086154369,-7.65951975392533,-14.9556189006033
3.73776622938746,-17.2057439551211,-13.4605456528579,9.09536213813733,-14.1303080120581,-45.2165561762236,-3.33813678883315,64.1162674545216,-23.7340396850605,-8.01292755686429,-14.6542535911413
4.09287439333845,-17.2159815399178,-13.4580773496206,9.07308409882467,-14.1828930353393,-45.2171219875176,-3.32931611430034,64.1527017933271,-23.0132561900093,-8.41049440679501,-14.3188086098067
4.44116611711174,-17.2251720090256,-13.4547587472456,9.04874328984594,-14.2214367491162,-45.2177588745879,-3.31438146251265,64.1882061691779,-22.2209320046272,-8.85327308362364,-13.9492901254191
4.77868987891076,-17.233224707186,-13.4506001771039,9.02235402985437,-14.243187252037,-45.2177706743385,-3.29247171192943,64.2209720251999,-21.3583399895399,-9.3419225972792,-13.5462007666602
5.10158543103834,-17.2400598434664,-13.4456255119564,8.9939366402662,-14.2453773326774,-45.2163421940249,-3.26269311174095,64.2489617455497,-20.4276871809419,-9.8766043317659,-13.110627374175
5.40614118470712,-17.2456095436965,-13.4398722815297,8.96351493285322,-14.2252738995649,-45.2125423462567,-3.22413346740719,64.2699386674048,-19.4321351944374,-10.4568734750643,-12.6443204743575
5.68885285224166,-17.2498185360624,-13.4333913704655,8.93111354023239,-14.1802300315344,-45.205330247989,-3.17588016196117,64.2815052229537,-18.3758031789226,-11.0815785478781,-12.1497515520661
5.9464813787783,-17.2526444269636,-13.4262463045649,8.89675520822036,-14.1077385337186,-45.1935643628162,-3.11704190750999,64.2811480432718,-17.2637507056578,-11.7487837774807,-11.6301332441326
6.1761085176487,-17.2540575444042,-13.4185121488932,8.86045817830388,-14.0054857645459,-45.1760146835493,-3.04677383492407,64.2662884058981,-16.1019382974711,-12.4557288268663,-11.0893891127937
6.37518864238219,-17.2540403487024,-13.4102740556316,8.82223379435464,-13.8714043948479,-45.1513778716742,-2.96430522227121,64.2343360335953,-14.8971639275794,-13.1988375513586,-10.5320640898503
6.54159559094571,-17.2525864327373,-13.401625510459,8.78208447172264,-13.7037236850302,-45.118295190215,-2.86896886598405,64.1827440086269,-13.6569747528704,-13.9737821595485,-9.96317376461229
6.6736635289519,-17.2496991543176,-13.3926663327871,8.7400021685917,-13.5010158329757,-45.0753729868761,-2.76023084632176,64.1090625028512,-12.3895545596899,-14.7756022053888,-9.38799944178343
6.7702210099237,-17.2453899603898,-13.3835004861814,8.69596749633602,-13.2622369607582,-45.021205406808,-2.63771925767659,64.0109891645655,-11.1035888113449,-15.5988705288751,-8.81184474469841
6.83061760654806,-17.2396764757771,-13.3742337509549,8.64994959456243,-12.9867613748975,-44.9543989397704,-2.50125038349654,63.8864143448896,-9.80811067886402,-16.4378920256492,-8.23977663576622
6.85474268639261,-17.2325804370481,-13.364971303472,8.60190687585808,-12.674407854867,-44.8735983338875,-2.35085080519829,63.7334598515537,-8.51233287303179,-17.2869171623796,-7.67637737581761
6.84303610409042,-17.224125554676,-13.3558152401901,8.55178871459225,-12.3254569002919,-44.7775133365455,-2.18677404533628,63.5505105124515,-7.22547132765867,-18.1403511841998,-7.12553308245746
6.79649077109379,-17.2143353841964,-13.3468620830431,8.49953811387547,-11.9406580985865,-44.664945653632,-2.00951054990673,63.3362384185511,-5.95656765921833,-18.9929420566107,-6.59027914315084
6.71664723107908,-17.2032312799934,-13.3382003082993,8.44509533665565,-11.5212270556386,-44.5348154564818,-1.81979010034729,63.0896202018626,-4.71431771210238,-19.839934729263,-6.0727139224797
6.6055804957938,-17.1908304939126,-13.3299079525608,8.38840243438689,-11.0688316506125,-44.3861867186339,-1.61857609746357,62.8099480235348,-3.50691330462408,-20.6771851621244,-5.57398197634897
6.46587945701825,-17.1771444659299,-13.3220503643884,8.32940855391648,-10.5855677191124,-44.2182906375781,-1.40705155937575,62.4968350765432,-2.3419035009192,-21.5012333901144,-5.09431861002765
6.30061914995219,-17.1621773382649,-13.3146781837825,8.26807585332204,-10.0739246268378,-44.0305463950158,-1.18659710133041,62.150216364999,-1.22608041157022,-22.3093395754138,-4.63314093994248
6.11332595403764,-17.1459247121073,-13.3078256388978,8.20438581228881,-9.53674155861963,-43.8225785392271,-0.958761590382512,61.7703453564525,-0.165392813583808,-23.0994898352451,-4.18916758620181
5.90793541831368,-17.1283726611046,-13.3015092457674,8.13834568454322,-8.97715570152923,-43.594230341623,-0.725226566530068,61.3577868793601,0.835111023504884,-23.8703795588599,-3.7605496384448
5.68874172100066,-17.1094970175583,-13.2957269819945,8.06999481221827,-8.39854382736697,-43.3455725896471,-0.487765872473391,60.9134064207575,1.77131180022756,-24.6213813461436,-3.34499870147374
5.4603367578499,-17.0892629520994,-13.2904579822145,7.99941050786972,-7.80445905708977,-43.0769074271191,-0.248202216975789,60.4383558210922,2.64002110299687,-25.3525032344223,-2.93990237606874
5.22753549454277,-17.0676248714207,-13.2856627760391,7.92671321063031,-7.19856479194182,-42.7887670332126,-0.00836258767629822,59.9340552945601,3.4389602546586,-26.0643411081289,-2.54242226294707
4.9952826474071,-17.0445266587557,-13.2812840629643,7.85207063901072,-6.58456789893531,-42.4819071311748,0.229965498678918,59.4021717333084,4.16672046075976,-26.7580275085434,-2.14957362349171
4.76853438430952,-17.0199022761982,-13.2772479976974,7.77570069402885,-5.96615322821509,-42.1572955232716,0.465074986859405,58.8445933737205,4.82270902507183,-27.435177706959,-1.75828873483013
4.552108422911,-16.993676735461,-13.2734659460113,7.69787291180654,-5.3469214189722,-41.8160960434036,0.69537580022163,58.2634010894405,5.40708637813756,-28.0978329823719,-1.36546764839244
4.35049804567939,-16.9657674256506,-13.26983666515,7.61890832183964,-4.7303317328188,-41.4596484896904,0.919425501941098,57.6608367965745,5.92069825906132,-28.7484005590066,-0.968020660566065
4.16765184564379,-16.9360857678056,-13.2662488609843,7.5391776308467,-4.11965135624174,-41.0894452375646,1.13595314223379,57.0392696770075,6.3650067069366,-29.3895895238327,-0.562906617682034
4.00673252876444,-16.904539151991,-13.2625840726107,7.45909771665616,-3.5179122561258,-40.7071053347352,1.34387580338696,56.401161113853,6.7420226576776,-30.0243421346518,-0.147170506022995
3.86988356480769,-16.8710331066461,-13.2587198308165,7.37912647873504,-2.92787627972777,-40.3143469391311,1.54230781883902,55.7490293623023,7.05424200896527,-30.6557601457862,0.282017136967148
3.75804669270027,-16.8354736505832,-13.2545330284932,7.29975615214429,-2.3520087947209,-39.9129589776945,1.73056305768976,55.0854150333177,7.30458610444872,-31.2870260767972,0.727317449136042
3.67087765128989,-16.7977697824023,-13.2499034294012,7.22150525083456,-1.79246079784125,-39.5047728785178,1.90815100317367,54.4128484427636,7.49634677336315,-31.9213197287881,1.19117654619759
3.60679455300984,-16.7578360676915,-13.2447172287453,7.14490936214582,-1.2510591070798,-39.0916351641195,2.07476759656353,53.733819780345,7.63313540088666,-32.5617307204389,1.67577525211348
3.56316346522146,-16.7155952897718,-13.2388705670246,7.07051106258956,-0.729304006713119,-38.6753815943721,2.23028195988459,53.0507528920889,7.71883504004001,-33.2111683637542,2.18297643047649
3.53659020161885,-16.6709811330194,-13.2322728897133,6.99884926138848,-0.228373540719088,-38.2578134216805,2.37472015491162,52.3659832621594,7.75755433082914,-33.8722708032637,2.71427180187549
3.5232622015738,-16.6239408666738,-13.2248500415411,6.9304483002403,0.250866456279186,-37.8406761797402,2.50824709503736,51.681740543203,7.75358196805394,-34.5473159675916,3.27073071272304
3.51927996420279,-16.5744379908998,-13.216546986595,6.86580714391525,0.707847549697266,-37.4256412832037,2.63114761939708,51.0001357391341,7.71134063838553,-35.2381374786748,3.8529537461665
3.52093208733275,-16.5224547976276,-13.2073300535037,6.80538898693755,1.14228007617525,-37.0142905799186,2.74380758528605,50.32315290825,7.63533969510557,-35.9460491583598,4.46103430698323
3.5248912298302,-16.4679947894042,-13.1971886169134,6.74961157945523,1.55413161356573,-36.6081038770827,2.84669565538335,49.6526450420252,7.53012630140498,-36.6717820736064,5.09453132941191
3.52832952311499,-16.4110848923698,-13.1861361412385,6.69883854422241,1.94360339633188,-36.2084493605175,2.94034626944598,48.9903335965622,7.40023528196881,-37.4154380829924,5.75245600994424
3.52896540402411,-16.3517773953493,-13.1742105302456,6.65337191905296,2.31110543130425,-35.8165767432484,3.02534411164716,48.3378110178264,7.25013840815441,-38.1764635243257,6.43327494177886
3.52505919223566,-16.2901515458106,-13.1614737467494,6.61344611616932,2.65723096762497,-35.433612917038,3.10231022555458,47.6965455157051,7.08419424490532,-38.9536459725379,7.1349312355867
3.51537449275827,-16.2263147346175,-13.1480106908045,6.57922344221455,2.98273087126064,-35.0605598393886,3.1718897956405,47.0678873106931,6.90659996017346,-39.7451358848964,7.85488418153462
3.49911954537503,-16.1604032046492,-13.1339273523701,6.55079127177158,3.28848835374678,-34.6982943668441,3.23474151131119,46.4530755998988,6.72134660429306,-40.5484934917202,8.59016680244591
3.4758790205147,-16.0925822233691,-13.1193482849308,6.52816091535436,3.57549441206543,-34.3475697387675,3.29152835842897,45.8532455568869,6.53217929052721,-41.3607596288927,9.33745938125695
3.44554353586931,-16.0230456666746,-13.1044134776878,6.51126817246993,3.84482425576728,-34.0090184204394,3.3429096421003,45.2694347781664,6.34256346207398,-42.1785475372435,10.0931758654229
3.40824169329707,-15.9520149714061,-13.0892747318445,6.49997551359154,4.09761492857216,-33.6831560287646,3.3895340269135,44.7025887050928,6.15565806033398,-42.99815115664,10.853559094714
3.36427768848855,-15.8797374273471,-13.0740916674797,6.49407579309964,4.33504427176295,-33.3703860869319,3.43203337942473,44.1535646765642,5.97429597856062,-43.8156642653883,11.6147801631948
3.31407636076659,-15.8064837968116,-13.0590274999061,6.49329735928203,4.55831132365212,-33.0710053837395,3.47101720785607,43.6231344013091,5.80097175977418,-44.6271040735603,12.3730369650882
3.25813674302227,-15.7325452710127,-13.0442447289304,6.49731039784913,4.76861820355131,-32.7852097458754,3.50706751556594,43.1119847737715,5.63783613246467,-45.42853266291,13.1246471133919
3.19699459149025,-15.658229796912,-13.0299008825744,6.50573432183641,4.96715349239723,-32.5131000653866,3.54073392128038,42.6207170882405,5.48669670892094,-46.2161700230512,13.8661309566932
3.13119391825615,-15.5838578355962,-13.0161444500126,6.51814600225758,5.1550770990864,-32.2546884601972,3.57252895341051,42.1498448259833,5.34902401524302,-46.9864933276513,14.5942813050127
3.06126715635025,-15.5097576423092,-13.0031111279088,6.53408862016788,5.33350659438263,-32.0099044835906,3.60292349540381,41.6997902935441,5.22596197612473,-47.7363183937734,15.3062176080086
2.98772323306525,-15.4362601870275,-12.9909204905574,6.55308091306565,5.50350500208945,-31.7786013378152,3.63234243313249,41.2708804691544,5.11834202267012,-48.4628607874307,15.9994235709225
2.91104251114969,-15.3636938595551,-12.9796731767477,6.57462658817799,5.66607005467494,-31.5605620833893,3.66116061874109,40.8633424610476,5.02670009461239,-49.163775599804,16.6717683959821
2.83167729350415,-15.292379120692,-12.9694486646541,6.59822368242131,5.82212493989416,-31.3555058638607,3.68969930606082,40.4772989941415,4.95129592458861,-49.8371763733899,17.3215128591934
2.75005639409413,-15.2226232685093,-12.9603036816282,6.62337366276947,5.97251057946898,-31.1630941815049,3.7182232266392,40.1127643246031,4.89213408236863,-50.4816348871334,17.9473021705639
2.66659217345285,-15.1547154861477,-12.9522712713677,6.64959007939785,6.11797948686972,-30.9829372615236,3.74693846734301,39.7696409431628,4.84898631038618,-51.0961644254705,18.5481479827755
2.58168843242458,-15.0889223265967,-12.9453605191906,6.6764066043994,6.25919124700461,-30.8146005322736,3.77599129015561,39.4477173753587,4.82141471863892,-51.6801897116193,19.123402047342
2.49574765532785,-15.0254837723246,-12.9395569179924,6.70338430869999,6.39670964577427,-30.6576112306954,3.80546801079669,39.1466673271263,4.80879545287714,-52.2335068932715,19.6727239514345
2.40917628827601,-14.9646099843814,-12.934823342323,6.73011804921721,6.53100145379677,-30.5114651212082,3.83539602765431,38.8660503641075,4.81034251278268,-52.7562368970315,20.1960451818768
2.3223870192442,-14.9064788273496,-12.9311015846276,6.75624186010619,6.66243683978773,-30.3756332985199,3.86574606319001,38.6053142574994,4.82513146785888,-53.2487752059511,20.6935315043737
2.23579738028175,-14.8512342247625,-12.9283143950687,6.78143326835492,6.7912913592273,-30.2495690321605,3.89643564339382,38.3637990786735,4.85212288770698,-53.7117407399003,21.1655453456219
2.14982440517844,-14.798985367485,-12.9263679541292,6.80541648381074,6.9177494368433,-30.132714600966,3.9273337979241,38.14074307616,4.89018536413956,-54.145926084337,21.6126095500114
2.06487553354394,-14.7498067682072,-12.9251546960355,6.8279644437166,7.04190923826431,-30.0245080549336,3.95826691662568,37.935290319434,4.93811804965135,-54.5522508494304,22.0353735709011
1.98133643709306,-14.7037391292714,-12.9245563923138,6.84889972044524,7.16378880368459,-29.9243898269937,3.98902564687203,37.7465000452113,4.99467266367899,-54.9317194683544,22.4345828536074
1.89955693005821,-14.6607909670908,-12.924447399469,6.86809432895227,7.28333329004377,-29.8318090992252,4.0193726591415,37.5733575966026,5.05857492111228,-55.285384286037,22.8110518707336
1.81983657287656,-14.6209409137032,-12.9246979728353,6.88546849790026,7.40042313786104,-29.746229812221,4.04905104847996,37.4147868051798,5.12854531887875,-55.6143143784831,23.1656409892074
1.74241192829151,-14.5841405956057,-12.9251775499153,6.9009884943853,7.51488294966069,-29.6671362005617,4.07779308800145,37.269663631631,5.20331918211262,-55.9195702001178,23.4992371076508
1.66744760748399,-14.5503179738071,-12.9257579114481,6.91466361507264,7.62649084554069,-29.5940377479959,4.10532902236654,37.1368308545969,5.28166582601566,-56.2021838865824,23.8127378263225
1.59503317197188,-14.5193810186548,-12.9263161373337,6.92654247478835,7.73498805179092,-29.5264734829536,4.13139559408697,37.0151135819303,5.362406635058,-56.463144833382,24.1070388032856
1.52518757194766,-14.4912215887797,-12.9267372866467,6.93670873594624,7.8400884798975,-29.4640155714515,4.15574403159736,36.9033353532757,5.4444318015744,-56.7033900123306,24.3830238949646
1.45787208088018,-14.4657193842908,-12.9269167447679,6.94527642805548,7.94148806185696,-29.4062722007539,4.17814728282682,36.8003346048412,5.5267154106394,-56.923798366801,24.6415576609158
1.39301166439294,-14.4427458489237,-12.9267621950647,6.95238500701681,8.03887361983607,-29.3528897767902,4.19840633482258,36.7049812754485,5.60832852201962,-57.1251885434151,24.8834798262153
1.33052348914205,-14.4221679042806,-12.9261951872748,6.95819430112055,8.13193106342644,-29.3035544800412,4.21635550646143,36.6161933480343,5.68844989917519,-57.3083191834538,25.1096013420908
1.27034995550143,-14.4038514119884,-12.9251522899561,6.96287948528103,8.22035272852025,-29.25799324079,4.23186663628568,36.5329531427393,5.76637408010322,-57.4738910199071,25.320701761647
1.21249233795957,-14.3876642761598,-12.9235858299635,6.96662621496842,8.30384370055749,-29.2159742075255,4.24485211925807,36.4543232052423,5.84151657057629,-57.6225500977068,25.5175277357282
1.15703991279144,-14.3734791179112,-12.921464236967,6.96962603400923,8.38212700137326,-29.1773067921218,4.25526678290294,36.3794616653632,5.9134160464231,-57.7548915396746,25.7007925136926
1.1041883945537,-14.3611754746567,-12.9187720242182,6.97207214607645,8.45494756080519,-29.1418413812905,4.26310863609766,36.3076369736708,5.98173355498061,-57.8714634084086,25.8711763940995
1.05424070680472,-14.3506414987199,-12.9155094474533,6.97415561145349,8.52207493929562,-29.1094688048303,4.26841856779373,36.2382419534987,6.04624879578979,-57.9727703561216,26.0293281125133
1.00758291866539,-14.341775152016,-12.9116918922043,6.97606200311812,8.58330481397515,-29.0801196463771,4.27127911093027,36.1708071272364,6.10685363870001,-58.059276901101,26.1758671826695
0.964629318737571,-14.3344849150427,-12.9073490460673,6.97796853351688,8.6384592857711,-29.0537634709296,4.27181241212398,36.1050132852512,6.16354310890188,-58.1314103195453,26.3113872205407
0.925734176205821,-14.328690047585,-12.9025239161645,6.98004164764078,8.6873861068907,-29.0304080262791,4.27017755753539,36.0407032623031,6.21640413414395,-58.1895632989112,26.4364602704142
0.891074723367801,-14.3243204544794,-12.897271752031,6.98243506889111,8.72995696582946,-29.0100984563958,4.26656740220429,35.9778928715758,6.26560240490504,-58.2340966506796,26.5516421173809
0.860519929343829,-14.3213162222236,-12.8916589294855,6.98528828007859,8.76606500036348,-28.9929165482014,4.26120503958246,35.9167809235826,6.31136773677496,-58.2653424870274,26.6574785234458
0.833509731813822,-14.319626900909,-12.8857618415843,6.98872542057818,8.79562173625476,-28.9789800200499,4.25434003386099,35.8577582284094,6.3539783419114,-58.2836082891304,26.7545122784157
0.808974144674338,-14.3192106109943,-12.8796658293859,6.99285458043338,8.81855366824015,-28.9684418478226,4.24624452110015,35.8014154458645,6.39374441336473,-58.2891822356292,26.8432909138931
0.785316484892187,-14.3200330562811,-12.8734641699939,6.99776747238034,8.83479870831797,-28.9614896094719,4.23720926643785,35.748549610422,6.43099140421162,-58.2823400550531,26.9243748824429
0.760470911745598,-14.3220665229375,-12.8672571249423,7.00353946290006,8.84430272386292,-28.9583448096778,4.22753974502751,35.7001691193046,6.46604334642229,-58.2633535499736,26.9983459541327
0.732029859779407,-14.3252889387325,-12.8611510405231,7.01022994233439,8.84701637577422,-28.9592621241554,4.21755229580875,35.6574969370505,6.4992065087753,-58.2325008228771,27.0658155388732
0.697433455411451,-14.329683056585,-12.855257483335,7.01788301063469,8.84289244642822,-28.9645284813166,4.20757038150835,35.6219717432941,6.53075364734459,-58.1900781102813,27.127432615362
0.654231673476929,-14.3352358132401,-12.8496923880741,7.02652844946374,8.83188381989278,-28.9744618810282,4.19792097637017,35.5952467357553,6.56090906400284,-58.1364130001584,27.1838909440831
0.600487691047872,-14.3419378990957,-12.8445751895659,7.0361829441066,8.81394224350941,-28.9894098379613,4.18893109544745,35.5791857984763,6.5898346633797,-58.0718786746584,27.235935268346
