Finger Velocity,Scap_X,Scap_Y,Scap_Z,Shoulder horiz abd-adduction,Shoulder flexion-extension,Shoulder internal-external rotation,elbow flexion-extension,forearm pronation-supination,wrist flexion-extension,wrist radial-ulnar deviation
1.21496828909258,-17.4111050804987,-12.142731040846,8.46483384700625,-12.2118061228234,-44.9459023171658,-6.99613528171035,61.2113694041721,-25.1229178234641,7.65647297418779,-33.2457916128653
1.50864061209924,-17.4303794116163,-12.1377539123468,8.42605778556237,-12.2514585176375,-44.962955510303,-6.94053705879468,61.2139115006042,-24.790433704563,7.20767043845876,-32.9526207650287
1.82004108302531,-17.4548657309809,-12.1331356754621,8.38144921453328,-12.2859305171304,-44.9797325505617,-6.87291562946347,61.2243137101702,-24.3845681689973,6.70963251218328,-32.6213066755974
2.14647940115042,-17.4846763533472,-12.1288825032532,8.33087373917997,-12.3133394147599,-44.9955360868432,-6.79227578645217,61.2425649796003,-23.9016605091327,6.1594981286475,-32.248384011757
2.48511028765965,-17.5198575201109,-12.1249951386108,8.2742675783452,-12.3316347392229,-45.009571382711,-6.69765709000971,61.2683629638579,-23.3389007852384,5.55422553645984,-31.8301450497704
2.83290057318082,-17.5603840110477,-12.121467867765,8.21164251596749,-12.3386180878438,-45.0209469833059,-6.58814581992969,61.3010819181944,-22.6944517933653,4.8906077040835,-31.3626874837826
3.18663661459023,-17.6061547173303,-12.1182876036196,8.14308969639939,-12.331968755154,-45.0286766468909,-6.46288747875797,61.3397480604016,-21.9675667613316,4.16534068110513,-30.8420140883848
3.54295193807215,-17.6569893193059,-12.1154331405205,8.06878207641853,-12.3092750773378,-45.0316826128722,-6.32109990338937,61.3830239778865,-21.1586985760727,3.37515514227904,-30.2641926086844
3.89836649468104,-17.7126262006647,-12.1128746413056,7.98897537726296,-12.2680711827844,-45.0288003108856,-6.1620870560815,61.4292032890346,-20.2695949841914,2.51701531235189,-29.6255784091606
4.24933319472864,-17.7727217152954,-12.1105734097198,7.90400741808009,-12.2058785933732,-45.0187846614703,-5.98525356315363,61.4762162802048,-19.3033729396275,1.58838049790015,-28.9230937051678
4.59228912216764,-17.8368509029131,-12.1084819867676,7.81429575688506,-12.1202518793439,-45.0003181671839,-5.79012004687164,61.5216466557449,-18.2645643435307,0.587513044661454,-28.1545461020988
4.92370957944536,-17.9045097227146,-12.1065445920791,7.7203336158821,-12.0088273495369,-44.972021027964,-5.57633924874075,61.5627589064642,-17.1591251074292,-0.486195858196913,-27.3189570837942
5.24016345583084,-17.9751188406643,-12.1046979149991,7.62268412345726,-11.8693735712054,-44.9324635211023,-5.34371286444153,61.5965351880394,-15.9944000329151,-1.6319220343945,-26.4168604505953
5.53836858206663,-18.0480289668852,-12.1028722470091,7.52197296141898,-11.699842368618,-44.8801808547455,-5.09220889246541,61.6197200825828,-14.7790376289395,-2.84717166573308,-25.4505246481351
5.81524583300119,-18.1225276960573,-12.1009929374081,7.41887955858796,-11.4984188546061,-44.8136906329422,-4.82197913213593,61.6288712747975,-13.5228517417768,-4.12765661000142,-24.4240545469313
6.06797081422308,-18.1978477562691,-12.0989821463299,7.31412701875962,-11.2635690105931,-44.7315129671269,-4.5333762586997,61.6204140769995,-12.2366306222736,-5.46731529561111,-23.3433394775529
6.29402204066695,-18.2731765230328,-12.0967608603329,7.20847101195577,-10.9940833519184,-44.6321931452023,-4.22696968107518,61.5906979152295,-10.931898427771,-6.85849288605983,-22.2158347990786
6.49122459492491,-18.3476666108684,-12.094251123725,7.10268789055438,-10.6891152941098,-44.5143266353573,-3.90355918915331,61.5360533131272,-9.62063855740828,-8.29226899525327,-21.0501905420665
6.65778834469921,-18.4204473206971,-12.0913784241377,6.99756231399679,-10.3482129657209,-44.3765860645406,-3.56418525442507,61.4528484927092,-8.31499195912428,-9.7588962751589,-19.8557667530124
6.79233990316708,-18.4906366989,-12.0880741574448,6.89387467836079,-9.97134338743884,-44.2177496772604,-3.21013478336977,61.3375453206198,-7.02694601770694,-11.2482951832705,-18.6420943893247
6.89394763158218,-18.5573539514139,-12.0842780892069,6.79238865333021,-9.55890814886161,-44.0367306555681,-2.84294115513759,61.1867548182911,-5.7680304555087,-12.7505438515845,-17.4183479437016
6.96213910740279,-18.6197319524792,-12.0799407292741,6.69383912996057,-9.11174995620987,-43.8326065716181,-2.46437751395149,60.9972926991614,-4.54903576767384,-14.256308348054,-16.1928898973599
6.99691060983476,-18.6769295941511,-12.0750255423031,6.59892087580092,-8.63114968721514,-43.6046481539955,-2.07644253076804,60.7662353289733,-3.37976728633329,-15.75717498739,-14.9729300773704
6.99872830346237,-18.7281437401756,-12.0695109278398,6.50827817605157,-8.11881386419105,-43.3523464806933,-1.68133818398106,60.4909761397168,-2.26884447499775,-17.2458673338842,-13.7643203349874
6.96852092478362,-18.7726205727257,-12.0633919169061,6.42249570841115,-7.57685273517488,-43.0754376687703,-1.28143951236145,60.1692819520123,-1.2235510744828,-18.7163503505756,-12.571482694012
6.90766389110857,-18.8096661470397,-12.0566815459682,6.34209085531026,-7.00774942907025,-42.7739241180795,-0.879256737553835,59.7993480096656,-0.249737830183886,-20.1638385845035,-11.3974519343281
6.81795485201929,-18.838655995742,-12.0494118829144,6.26750760334437,-6.41432091455772,-42.4480913888763,-0.477390609334467,59.3798499476658,0.64822381600666,-21.5847326826428,-10.2440037361843
6.70158078724849,-18.8590436554327,-12.0416346918941,6.19911212055846,-5.79967173397054,-42.0985198547245,-0.0784822641668092,58.9099905179779,1.46744121589246,-22.9765095550447,-9.11183687971485
6.56107682059442,-18.8703680242936,-12.0334217326541,6.13719004176362,-5.16714169777446,-41.7260903753226,0.314840726642866,58.3895387545517,2.20645896913684,-24.337588126665,-8.00078083531757
6.39927697059614,-18.8722594945401,-12.0248646944156,6.08194543332978,-4.52024891491661,-41.3319833788525,0.700020141600582,57.8188593855819,2.86518294115336,-25.667187129451,-6.91000606053906
6.21925710478935,-18.8644448295671,-12.0160747646201,6.03350135574444,-3.86262969921518,-40.9176709293547,1.07462255840649,57.1989306670633,3.44477662156382,-26.9651856353682,-5.83822131003817
6.02427042444569,-18.8467507699389,-12.0071818299309,5.99190189906545,-3.19797702275434,-40.4849015807238,1.43639223667096,56.5313493556087,3.9475363493645,-28.2319921584363,-4.78384876017079
5.81767591225273,-18.819106356543,-11.9983333028677,5.95711553604067,-2.52997926716704,-40.035678081946,1.78329927419474,55.8183221844182,4.3767514462078,-29.4684246412396,-3.74517292905848
5.60286037258384,-18.7815439566546,-11.9896925657671,5.92903962031919,-1.86226103409304,-39.5722282889652,2.11358108287188,55.0626438765407,4.73655471952606,-30.675601507993,-2.72046298047783
5.38315504266844,-18.7341989746182,-11.9814370265429,5.90750585078542,-1.19832770006437,-39.0969699413082,2.42577555905065,54.267662352044,5.03176819998968,-31.8548429664906,-1.70807015728273
5.16174831878913,-18.6773082290423,-11.973755787136,5.8922865239841,-0.541515228580014,-38.6124702559563,2.71874475284012,53.4372323020706,5.2677483926036,-33.0075815233538,-0.70650311439613
4.94159697706993,-18.6112069860183,-11.9668469335775,5.88310140088504,0.105053512706894,-38.1214015538145,2.99168834094844,52.5756586787503,5.45023474905011,-34.1352808904598,0.285515816818402
4.7253393791545,-18.5363246529704,-11.9609144657885,5.87962501842266,0.738505017930531,-37.6264943418329,3.24414674235092,51.6876318805563,5.58520450200772,-35.2393628364975,1.2690105777662
4.51521545222234,-18.4531791589974,-11.9561648967871,5.88149427811908,1.35624345475933,-37.1304894048048,3.47599424486372,50.778156515592,5.6787364380837,-36.321141939323,2.24472508442286
4.31299949674201,-18.36237007358,-11.9528035654188,5.88831614387108,1.95597085988551,-36.6360904983568,3.68742298744243,49.8524756276162,5.73688563954608,-37.3817685838663,3.21310870083271
4.11995273001658,-18.2645705445331,-11.9510307227291,5.8996752815511,2.53569939715063,-36.1459191704099,3.87891902234976,48.9159921987212,5.76557072290272,-38.4221808999829,4.1743119736368
3.93680244854383,-18.1605181654406,-11.9510374679751,5.91514147796498,3.0937561393831,-35.6624730774248,4.0512319346357,47.9741896247178,5.77047466667385,-39.4430665870776,5.12819149061923
3.76375336623485,-18.0510049101683,-11.9530016259957,5.93427668807189,3.62878105159102,-35.1880889239344,4.20533962104735,47.0325527188028,5.75695995862324,-40.4448356523605,6.07432294172698
3.60053389804916,-17.9368662966196,-11.9570836738555,5.95664157790246,4.13971901090841,-34.7249108683485,4.34240984038029,46.0964906543562,5.72999849836933,-41.4276049348079,7.01202150261245
3.44647619477636,-17.81896996387,-11.9634228397786,5.98180145565993,4.62580680541013,-34.2748649354463,4.46376006029114,45.1712631184775,5.69411644900764,-42.3911948874503,7.9403685619264
3.30062435494965,-17.6982038655446,-11.9721335066948,6.00933151287982,5.08655611111893,-33.8396396840024,4.57081696421763,44.2619108173944,5.65335401516883,-43.3351385090987,8.85824363857366
3.16186147553231,-17.5754642960422,-11.9833020507969,6.03882132796527,5.52173345288966,-33.4206731188881,4.66507677840401,43.3731913533316,5.61123990229636,-44.2587016561556,9.76436015032274
3.02904397468445,-17.4516439737765,-11.9969842290313,6.06987861267824,5.93133811209772,-33.0191456251089,4.74806736948276,42.5095213780101,5.57077995385237,-45.1609133262482,10.6573035513961
2.90113136576856,-17.3276204068134,-12.0132031996621,6.1021322061604,6.31557885873549,-32.6359785414463,4.82131287488206,41.6749258163696,5.53445915711635,-46.0406039736769,11.5355702895478
2.77730117602684,-17.2042447607849,-12.0319482239087,6.13523434046635,6.67485026737869,-32.2718378796325,4.88630147027791,40.8729948381553,5.50425586928893,-46.8964495574944,12.3976060680569
2.65704125856207,-17.0823314359113,-12.0531740640706,6.16886221765452,7.00970923682014,-31.9271426214487,4.94445674382383,40.1068491261265,5.48166678386799,-47.7270188689947,13.2418420476557
2.54021440583406,-16.9626485390742,-12.0768010712637,6.20271895296005,7.32085218526907,-31.6020769806434,4.99711302634172,39.3791138413166,5.46774087579534,-48.5308217360183,14.0667278785057
2.42709212383767,-16.8459094093239,-12.102715944009,6.23653395232042,7.60909325288103,-31.2966059931264,5.04549491635891,38.6919015157392,5.46312035814299,-49.3063559326681,14.870760780366
2.31835521296881,-16.732765323123,-12.1307731334655,6.27006280489184,7.87534372597832,-31.0104937953755,5.0907011382584,38.0468039140069,5.46808656426773,-50.0521509915861,15.6525102467174
2.21505845803687,-16.6237994711956,-12.1607968681334,6.30308678067626,8.12059280913098,-30.7433239650583,5.13369277603449,37.4448927057697,5.48260864900009,-50.7668075654803,16.4106382955156
2.11855587990156,-16.5195222633469,-12.1925837681597,6.33541202891928,8.3458898072239,-30.4945213244198,5.17528582547781,36.8867285931627,5.50639309374919,-51.4490314566253,17.1439154888547
2.03038296292278,-16.4203679815176,-12.2259060151966,6.36686857430639,8.5523277293785,-30.2633746410575,5.21614790014079,36.372378355216,5.53893220475321,-52.0976618756174,17.8512331617519
1.95209501768895,-16.326692765497,-12.2605150352718,6.39730920468787,8.74102828418485,-30.0490597019115,5.25679881901953,35.9014391159579,5.57955009183933,-52.7116938667727,18.5316124169441
1.88506839874843,-16.2387738827264,-12.2961456362554,6.42660833445541,8.91312820310558,-29.8506622876789,5.29761471329101,35.4730690214308,5.62744497274521,-53.2902951336362,19.1842104677107
1.83028416779215,-16.1568102073159,-12.3325205185578,6.45466091066432,9.06976681152203,-29.6672006368622,5.33883522979164,35.0860234240985,5.68172702601619,-53.8328177194687,19.8083248748798
1.78812867238529,-16.0809238164983,-12.3693550531882,6.48138140660771,9.21207476679609,-29.4976470558662,5.38057338159545,34.7386956186661,5.74145137672611,-54.338805155217,20.4033961560188
1.75825446675126,-16.0111626052264,-12.406362202772,6.50670292412651,9.34116389569614,-29.3409483953058,5.42282759073596,34.4291611477779,5.80564611763142,-54.8079957903159,20.9690091624341
1.7395390368619,-15.9475038193656,-12.4432574526024,6.53057640460074,9.45811808170244,-29.1960451662213,5.46549547200293,34.1552246953369,5.87333553336708,-55.240323073345,21.504893532476
1.73015547735849,-15.8898584124057,-12.4797636192251,6.55296993083294,9.56398516913735,-29.0618891115116,5.50838891078131,33.9144686045831,5.94355890435417,-55.6359135482906,22.0109234350549
1.7277377268898,-15.8380761370145,-12.5156154105869,6.57386808951669,9.65976986149111,-28.9374590803445,5.55124998845402,33.704302094262,6.01538541572375,-55.9950832801084,22.4871167046927
1.72959900347175,-15.7919512872773,-12.5505636233873,6.59327135775111,9.74642759422633,-28.8217750812018,5.59376730943315,33.5220102984799,6.08792578075642,-56.3183333330466,22.9336333431749
1.73295638868815,-15.7512290070958,-12.5843788801082,6.61119547656583,9.82485935957585,-28.7139104171406,5.63559229271866,33.3648023241837,6.16034121269412,-56.6063448072736,23.3507732544586
1.73512568640981,-15.715612074454,-12.6168548296544,6.62767077819643,9.8959074554455,-28.6130018376831,5.67635501340939,33.2298576035368,6.23185035659224,-56.8599737893029,23.7389730270789
1.73366900148412,-15.6847680607896,-12.6478107601101,6.6427414401619,9.96035212329438,-28.518257675961,5.71567921453388,33.1143699147114,6.30173473811768,-57.0802463834505,24.0988015959472
1.72649345717545,-15.6583367509307,-12.6770935971926,6.6564646464863,10.0189090304886,-28.4289639778468,5.75319615307886,33.0155885509913,6.36934320694555,-57.2683537790334,24.4309546866421
1.71190879988629,-15.6359376957936,-12.7045792842803,6.66890964391624,10.0722275437173,-28.3444886731135,5.78855699404177,32.9308562302922,6.43409575209581,-57.4256471020573,24.7362480409129
1.68865474348047,-15.6171777624702,-12.7301735578134,6.68015668835461,10.1208897367322,-28.2642838860227,5.8214435227184,32.8576434489626,6.49548694972255,-57.5536316277006,25.0156095175331
1.65590817858381,-15.6016585468207,-12.7538121465546,6.69029588326146,10.1654100814481,-28.1878865291862,5.85157700942274,32.7935790880522,6.55308917858727,-57.653959803813,25.2700702417763
1.6132780860219,-15.5889835204384,-12.7754604359621,6.69942591678214,10.2062357857109,-28.1149173644773,5.87872513252011,32.7364771717975,6.60655561467598,-57.7284224615308,25.5007550284281
1.56079353793326,-15.5787647938785,-12.7951126496097,6.70765270787182,10.2437477591305,-28.0450787436597,5.90270693987501,32.6843597546715,6.65562290597696,-57.7789375771119,25.7088723190811
1.49888812440772,-15.570629389889,-12.8127906078358,6.71508797440011,10.2782622032514,-27.9781512554008,5.92339589481771,32.6354759757917,6.70011334509827,-57.8075360162137,25.895703853358
1.42838258206333,-15.564224933866,-12.8285421295397,6.72184773884101,10.310032828109,-27.9139895032602,5.9407211026621,32.5883173699349,6.73993631087145,-57.8163438545905,26.0625942470329
1.35046613624807,-15.5592246834346,-12.8424391458331,6.72805078990244,10.3392536919582,-27.852517224492,5.95466684994843,32.5416295643496,6.77508873951256,-57.8075611341925,26.2109405992182
1.26667576232063,-15.5553318341897,-12.8545755937722,6.73381712122253,10.3660626467545,-27.7937219381894,5.96527061910502,32.4944205207672,6.8056544024544,-57.7834372640358,26.342182218119
1.1788707375522,-15.5522830542938,-12.8650651551877,6.73926637083525,10.3905453536581,-27.7376492892088,5.97261977170519,32.4459655045808,6.83180180100753,-57.7462436566502,26.4577905547852
1.08919681241692,-15.5498512177939,-12.8740389006314,6.74451628711683,10.4127398165502,-27.6843972351572,5.97684712402149,32.395808981366,6.85378052798743,-57.698244517446,26.5592594670367
1.00002923731758,-15.5478473255582,-12.8816428919697,6.74968124788659,10.4326413710293,-27.6341102078403,5.97812566517335,32.3437636561799,6.87191598673575,-57.6416668936934,26.6480959828654
0.913876202175942,-15.5461216225119,-12.8880357887994,6.75487085863609,10.4502080591112,-27.5869733646338,5.97666268616498,32.2899068819016,6.88660239652505,-57.5786711124477,26.7258117659066
0.833215393743877,-15.5445639384452,-12.8933864934908,6.7601886530559,10.4653663092181,-27.5432070249807,5.97269359556922,32.2345746670071,6.89829405074428,-57.5113226368487,26.7939154878115
0.760233341799475,-15.5431032955103,-12.8978718579229,6.76573091499053,10.478016823628,-27.5030613610468,5.96647569426222,32.1783535094061,6.90749483132352,-57.4415662201789,26.8539062856989
0.696456466513386,-15.5417068376499,-12.9016744632265,6.77158563800457,10.4880405552535,-27.4668113818594,5.95828216596714,32.1220702715128,6.91474602079697,-57.3712030712832,26.907268438141
0.642324157087252,-15.5403781453793,-12.9049804739641,6.77783163839574,10.4953046401784,-27.4347522208207,5.94839651047189,32.0667802941475,6.92061249425036,-57.3018715617203,26.9554673382982
0.596849609128394,-15.5391550046556,-12.9079775620545,6.78453783860255,10.4996681479423,-27.4071947094955,5.93710760256324,32.013753925202,6.92566741899166,-57.2350318165638,26.9999467784208
0.557569705117993,-15.5381067029406,-12.9108528938028,6.79176273805623,10.5009875200775,-27.3844611967884,5.92470550509877,31.9644616147073,6.93047564153958,-57.1719543732938,27.042127481504
0.520908614092358,-15.5373309299914,-12.9137911737287,6.79955408614498,10.4991215868095,-27.3668815535486,5.91147810463211,31.9205577021405,6.93557599945674,-57.1137129907281,27.0834067235536
0.482910819663296,-15.5369503642459,-12.9169727392506,6.8079487670177,10.4939360776247,-27.3547892905351,5.89770857963962,31.8838629967472,6.94146285624745,-57.0611816322569,27.1251587950117
0.440244269665481,-15.5371090259757,-12.9205717005082,6.81697289883328,10.4853075690675,-27.3485177131647,5.88367366067333,31.8563462304332,6.94856721542692,-57.0150356059905,27.1687359694047
0.391631894726783,-15.5379684753763,-12.9247541208493,6.82664214125096,10.4731268398992,-27.3483960373349,5.86964260052189,31.8401044472682,6.95723782179154,-56.9757567949638,27.2154695949571
0.340588536266769,-15.5397039290757,-12.9296762360776,6.83696219558294,10.4573016282729,-27.3547453937862,5.85587673943651,31.8373423840674,6.96772270368988,-56.9436428411501,27.2666709082194
0.301317582846671,-15.5425003636508,-12.935482714085,6.84792947367141,10.4377588068633,-27.3678746531076,5.84262952597231,31.8503508934222,6.98015164791859,-56.9188200557716,27.3236311900998
0.30466208360772,-15.5465486696842,-12.9423049611243,6.85953190532213,10.4144460094337,-27.3880760115202,5.83014684131194,31.8814844658083,6.99452012414733,-56.9012597235501,27.3876209430712
0.379411348944032,-15.5520419141556,-12.950259487169,6.8717498500561,10.3873327565093,-27.4156202917631,5.81866747688677,31.9331379223256,7.01067518593549,-56.8907973634671,27.459887860096
0.522981941030519,-15.5591717624494,-12.9594463502436,6.88455707632415,10.3564111392729,-27.4507519342068,5.80842363025284,32.0077223722994,7.0283038739748,-56.8871544125838,27.5416534737986
0.720165381094684,-15.5681251043021,-12.969947707306,6.89792176946402,10.3216961300258,-27.4936836783261,5.79964130705153,32.107640555894,7.04692464130194,-56.8899617172801,27.6341085068596
0.961461769295696,-15.5790809208618,-12.9818265060149,6.91180752866997,10.2832255954936,-27.5445909622124,5.79254054178808,32.2352617193643,7.06588231186263,-56.8987841543769,27.7384070750586
1.24240767818874,-15.5922074224898,-12.9951253562693,6.92617431405667,10.2410600965393,-27.6036060986586,5.78733537395727,32.3928962035113,7.0843470625957,-56.9131456707083,27.855660001531
1.56076418819559,-15.6076594783351,-13.0098656218197,6.94097930869571,10.1952825630819,-27.6708123197272,5.78423353645411,32.5827699682924,7.10131786516224,-56.9325540256968,27.9869275610135
1.9150980611561,-15.6255763488376,-13.026046770382,6.95617766745027,10.1459979337552,-27.7462378129985,5.78343582771306,32.8069993265264,7.11563071938787,-56.9565245415102,28.1332119684298
