Finger Velocity,Scap_X,Scap_Y,Scap_Z,Shoulder horiz abd-adduction,Shoulder flexion-extension,Shoulder internal-external rotation,elbow flexion-extension,forearm pronation-supination,wrist flexion-extension,wrist radial-ulnar deviation
1.1631791820483,-11.3857406486432,-16.3133369256823,7.06773278282186,-21.7488429056689,-46.2944481540971,-8.44360358963302,69.3129722170301,-20.4962400856693,10.3153260146145,-35.883181972494
1.6640007677504,-11.4498822121104,-16.3386398938449,6.94487187987598,-21.6269053766524,-46.2028440620374,-8.36872743552214,69.467634072846,-20.1706679381476,11.5373134849759,-37.1825217365303
2.22676309605585,-11.5180885506544,-16.3634081176842,6.81202100441284,-21.4608429780024,-46.0942135052922,-8.28203442241889,69.6223922756342,-19.839009505037,12.7795887851517,-38.5119329881238
2.84517513829656,-11.5895693169876,-16.3871730723111,6.66991385784428,-21.2466319991368,-45.9667289504371,-8.18237962704438,69.773515696734,-19.5043019419431,14.0263752100307,-39.8546675385097
3.51486658724001,-11.6633687061552,-16.4094505943625,6.51947621516195,-20.9806351971507,-45.8184945994047,-8.06870173218148,69.91689794482,-19.1697243859655,15.2616763584974,-41.1934070328096
4.23173830845831,-11.7383635901707,-16.4297488653383,6.36181908360331,-20.6596990911924,-45.6475598383221,-7.94007235099343,70.0480870905398,-18.8385464436263,16.4697553562629,-42.5107406888754
4.99143111312956,-11.8132644111493,-16.4475767945212,6.19822724480904,-20.2812426765686,-45.4519366237472,-7.7957476298095,70.1623195824663,-18.5140767002522,17.635571890935,-43.7896119160402
5.78913989958289,-11.8866190159936,-16.4624525914434,6.03014325930386,-19.8433341001065,-45.2296211669661,-7.63521986909952,70.2545578985059,-18.1996128515778,18.7451471080002,-45.0137045212359
6.61955886251489,-11.9568195481683,-16.4739123110471,5.85914716617116,-19.3447522621062,-44.9786201112735,-7.4582666358678,70.3195317174302,-17.8983947805477,19.785836847213,-46.1677492005505
7.47688648217918,-12.0221124351663,-16.4815181539776,5.6869322649731,-18.7850309042531,-44.6969811866342,-7.26499472337751,70.3517826449341,-17.6135615965608,20.7465058817906,-47.2377427352745
8.35486274113509,-12.0806114303715,-16.4848663092353,5.51527751309974,-18.164483479993,-44.3828280773927,-7.05587637372844,70.3457127464419,-17.3481133245995,21.6176073806629,-48.211083415965
9.24682632832882,-12.1303135926142,-16.4835941381371,5.34601719995385,-17.4842079389902,-44.0343989675429,-6.83177542228053,70.2956372980716,-17.1048775905058,22.3911809276514,-49.0766348965394
10.1457855227053,-12.1691180216636,-16.4773865187693,5.18100866141474,-16.746071435396,-43.6500879562063,-6.59396143693443,70.195842245838,-16.8864813148882,23.0607881993358,-49.8247360249396
11.0444989225136,-12.1948471159619,-16.4659811983679,5.02209886921602,-15.9526758362871,-43.2284882860188,-6.3441104798905,70.0406468370994,-16.6953271152191,23.6214078087027,-50.4471761906954
11.9355632722514,-12.2052700797156,-16.449173035018,4.87109076759768,-15.1073057121576,-42.7684361196884,-6.08429176921203,69.8244717394009,-16.5335738380801,24.0693104171135,-50.9371549368208
12.8115061337545,-12.1981283777159,-16.4268170476637,4.72971023199942,-14.2138611913491,-42.2690534506717,-5.81694020480961,69.5419126880715,-16.4031204259116,24.4019327585266,-51.2892417684845
13.6648813837276,-12.1711628152037,-16.3988302336464,4.59957449156294,-13.2767786147187,-41.7297886518744,-5.54481538780956,69.1878193183459,-16.3055921938228,24.6177654310126,-51.4993479859928
14.4883656453508,-12.1221419047324,-16.36519215496,4.48216279095056,-12.3009422996624,-41.1504531548085,-5.27094834915821,68.7573783651714,-16.2423285746606,24.7162647966459,-51.564717605617
15.2748538463179,-12.0488911717514,-16.3259443370404,4.37878997198954,-11.2915908876319,-40.5312528083884,-4.99857767180112,68.2461998897182,-16.2143714956923,24.69779456722,-51.4839395318387
16.0175521738843,-11.9493230454752,-16.2811885654702,4.29058353976303,-10.2542217003325,-39.8728125834606,-4.73107701991149,67.6504046608746,-16.2224537747638,24.5635979973463,-51.2569785277356
16.7100667860338,-11.8214669804433,-16.2310842034302,4.21846465063162,-9.19449628337159,-39.1761934546413,-4.47187627830494,66.9667103327055,-16.2669872518048,24.3157973248862,-50.88521852553
17.3464867445932,-11.6634994553916,-16.1758446821453,4.16313332887298,-8.11814990441117,-38.4429004928549,-4.22437857247791,66.1925136634002,-16.3480507779381,23.9574134151127,-50.3715086903078
17.9214597640288,-11.4737734988484,-16.1157333342958,4.12505808949547,-7.03090723952012,-37.6748814292577,-3.99187541646159,65.3259657592091,-16.4653786351549,23.4923957066002,-49.7202006185929
18.4302595188836,-11.2508473948641,-16.0510587439808,4.10447002279791,-5.93840587975052,-36.8745151979758,-3.77746216149488,64.3660372321056,-16.6183504135798,22.9256507540629,-48.9371643037385
18.8688434217551,-10.9935122259519,-15.9821697761748,4.10136128631777,-4.84612867472557,-36.0445902333398,-3.58395582701123,63.3125702593399,-16.8059837874107,22.2630571104258,-48.0297711531664
19.2338999696547,-10.7008179113327,-15.9094504262051,4.11548785440804,-3.75934534814803,-35.1882725944025,-3.41381730854045,62.1663148446302,-17.0269319577712,21.5114551171132,-47.0068344240918
19.5228849561122,-10.3720973951651,-15.8333145995104,4.14637629640841,-2.6830633089361,-34.3090643208493,-3.26907989096697,60.9289471084322,-17.2794877155985,20.678602423686,-45.8785008560572
19.7340460556268,-10.0069886306872,-15.7542008982548,4.19333429282835,-1.62198716865288,-33.4107527898499,-3.1512859586263,59.6030681641908,-17.5615960602017,19.7730896352118,-44.6560917619327
19.8664355019469,-9.60545399152383,-15.6725674590706,4.25546455427785,-0.580486177002517,-32.497352235666,-3.06143377439741,58.1921830333363,-17.8708770385549,18.8042150513903,-43.351896939225
19.9199107980036,-9.16779672134267,-15.5888868598011,4.33168177616235,0.437431391454228,-31.5730389938781,-2.99993616351309,56.7006600556795,-18.204659922535,17.7818224178613,-41.9789298350779
19.895123609036,-8.69467401028619,-15.5036410962123,4.42073223934259,1.4281379268278,-30.6420824074265,-2.96659283913677,55.1336722832995,-18.5600290354355,16.7161101997115,-40.5506566936273
19.793497197573,-8.18710626557696,-15.4173166251404,4.52121565074803,2.38840123157407,-29.7087736430339,-2.96057790671688,53.4971233082995,-18.9338805449979,15.6174243664621,-39.0807152389682
19.6171929557767,-7.64648212842966,-15.3303994793214,4.63160880771976,3.31539517465193,-28.7773548766951,-2.98044376007092,51.7975607661478,-19.3229884662511,14.4960484762129,-37.5826393215836
19.3690667738311,-7.07455878355569,-15.2433704764866,4.75029066556954,4.2067068990938,-27.8519513873937,-3.02414212932157,50.042081286695,-19.7240770911191,13.3620046842481,-36.0696047342612
19.0526161495566,-6.47345711717217,-15.1567005615752,4.87556838785183,5.06034098561423,-26.9365090321604,-3.08906246946442,48.23823087343,-20.1338962178622,12.2248772621238,-34.5542083175645
18.6719190916615,-5.8456513145419,-15.0708463285225,5.00570395968498,5.87472071811715,-26.0347393534281,-3.17208721431585,46.3939045566981,-20.5492950198174,11.0936667337858,-33.0482880960973
18.2315659948416,-5.19395255899374,-14.9862457663806,5.13894094373494,6.64868635729862,-25.1500741889226,-3.26966270713816,44.5172487089155,-20.9672902645014,9.97667849952812,-31.5627873047765
17.7365857676241,-4.521486605872,-14.9033142665525,5.27353095684448,7.38149013272255,-24.2856311326138,-3.37788391366047,42.6165686907338,-21.3851249065059,8.8814456089811,-30.1076606049346
17.1923675721757,-3.83166515471217,-14.8224409155343,5.40775944521021,8.07278753823987,-23.4441905773809,-3.49259038814063,40.7002436131823,-21.8003137960159,7.81468187476467,-28.6918172120095
16.6045795884901,-3.12815112554417,-14.7439850830368,5.53997034070979,8.72262448186885,-22.6281844144058,-3.60947045488988,38.7766490682291,-22.2106742732766,6.78225925265401,-27.3230934197634
15.9790862430961,-2.41481815339728,-14.6682733042035,5.66858919485409,9.3314199065627,-21.8396958247538,-3.72417022538824,36.8540878120659,-22.6143406236577,5.78920246479377,-26.0082461778515
15.3218653447678,-1.69570483745438,-14.5955964519019,5.79214441379331,9.89994365415839,-21.0804690211586,-3.8324039123014,34.940727671824,-23.0097626009967,4.83969405075597,-24.7529598182604
14.6389265471405,-0.974964501713488,-14.5262071993019,5.90928625820904,10.4292895732731,-20.3519273262575,-3.93006192461364,33.0445454433305,-23.3956893534059,3.93708412940496,-23.5618594404859
13.9362325114558,-0.256811426209982,-14.4603177776359,6.01880332290113,10.9208441505462,-19.6551976459544,-4.01331341475965,31.173275275527,-23.7711410036554,3.08390084443576,-22.4385264654827
13.2196240729821,0.454535321088302,-14.3980980357901,6.11963627016628,11.3762512440956,-18.9911392338808,-4.07870026892818,29.3343599870871,-24.1353707868309,2.28185942631078,-21.3855140579125
12.4947506233424,1.15490919358979,-14.3396738111356,6.21088865795744,11.7973737796745,-18.3603746391029,-4.12321994889947,27.5349039024301,-24.4878210119668,1.53186972482248,-20.4043621814593
11.767006809579,1.84025328627408,-14.2851256301544,6.2918347756577,12.1862534929306,-17.7633208601041,-4.14439507052266,25.7816260864503,-24.8280762029242,0.834043704046456,-19.495613776085
11.0414765209747,2.50667592924941,-14.2344877724804,6.3619244707297,12.5450699346901,-17.2002189660235,-4.14032810679504,24.0808132565263,-25.1558166217787,0.187705572185202,-18.6588347737334
10.3228849882376,3.15050347486757,-14.1877477479856,6.42078501198429,12.876099985515,-16.6711607638651,-4.10974010561471,22.4382721157781,-25.4707750362834,-0.408592155301442,-17.8926412998543
9.61555965853116,3.76832911219602,-14.1448462495135,6.46822008776128,13.1816790505232,-16.1761114578192,-4.05199279555998,20.8592813428205,-25.7726991141217,-0.957043301009984,-17.1947374248813
8.92340033603744,4.35705669921329,-14.1056776516634,6.50420608308246,13.4641649366653,-15.7149276338288,-3.96709390972209,19.3485439507417,-26.0613212544769,-1.46055046099276,-16.5619663069944
8.24985889357063,4.91393879026788,-14.0700911261453,6.52888582285545,13.7259051719948,-15.287370284958,-3.85568598670106,17.9101411584881,-26.3363370406327,-1.92267314193123,-15.9903766399062
7.59792866897898,5.43660824238464,-14.0378924345345,6.54256000839884,13.969208236104,-14.8931129519665,-3.71901930884137,16.5474892773913,-26.5973928547018,-2.34756060809647,-15.4753051380261
6.97014346424317,5.92310299421583,-14.0088464417255,6.54567660699795,14.196318865431,-14.5317453706477,-3.55891000996969,15.2633013850708,-26.8440825743378,-2.73986967380429,-15.0114745055329
6.36858587013969,6.3718838077128,-13.9826803747937,6.53881847283206,14.4093973134759,-14.2027732763959,-3.37768473063116,14.0595557204546,-27.0759527091862,-3.10466887933539,-14.5931051013803
5.79490445182654,6.78184493016759,-13.959087838393,6.52268947940775,14.6105022169459,-13.9056152075415,-3.17811352105623,12.937472771815,-27.2925148740582,-3.44733150767817,-14.2140374816968
5.25033916012946,7.15231776890799,-13.937733587531,6.49809943076361,14.8015765638214,-13.6395972729876,-2.96333298888514,11.8975029329048,-27.4932641724625,-3.77342063021907,-13.8678622827995
4.73575419260096,7.48306777826324,-13.9182590423871,6.46594799804897,14.984436182855,-13.4039469144989,-2.73676195211451,10.9393263647341,-27.677701890588,-4.0885697756763,-13.54805353998
4.2516774349547,7.77428484655377,-13.9002885000397,6.42720790781962,15.1607601730951,-13.197786706694,-2.50201207592425,10.0618663263109,-27.845360861909,-4.39836290419466,-13.2481015017225
3.79834558976356,8.0265675441386,-13.8834359563407,6.38290759377069,15.3320827617578,-13.02012919797,-2.26279613016541,9.2633167436162,-27.9958319214908,-4.7082171699571,-12.9616412478177
3.37575417312213,8.24090165319472,-13.8673124070518,6.33411351522602,15.4997862091917,-12.8698736975002,-2.02283658478091,8.54118420124979,-28.1287899869085,-5.02327153925871,-12.6825738839745
2.98371176249724,8.41863344889579,-13.8515334590423,6.28191234182091,15.665094550807,-12.7458057552839,-1.78577724456064,7.89234390440171,-28.244018447079,-5.34828378986946,-12.4051776863104
2.62189823734742,8.56143824640146,-13.8357270527396,6.22739320422484,15.8290681508567,-12.6465998727849,-1.55510049700203,7.31310851525056,-28.3414306954554,-5.68753783345128,-12.1242072348615
2.28992726806616,8.67128477510924,-13.8195410763102,6.17163021767634,15.9925992157668,-12.5708257381017,-1.33405250272949,6.799308163362,-28.421087808935,-6.04476273836117,-11.8349792375007
1.9874138848228,8.75039599437129,-13.8026506413057,6.11566550004245,16.1564085538604,-12.5169580207966,-1.12557830676172,6.34637940388862,-28.483211553126,-6.42306435363147,-11.5334443214835
1.71404823283794,8.80120702282167,-13.7847647906106,6.06049292676077,16.3210439588323,-12.4833895059464,-0.932268412461178,5.94946048113492,-28.5281920961407,-6.82487011559389,-11.2162444753728
1.46967552219141,8.8263209128898,-13.7656324230873,6.00704288606724,16.4868806297131,-12.4684471147429,-0.75631786512994,5.60348997260525,-28.5565900478693,-7.25188748476946,-10.8807560160497
1.25437694420191,8.8284630579965,-13.7450472439043,5.95616831411231,16.6541240207063,-12.4704101713893,-0.599498367879675,5.30330575957387,-28.5691327143805,-7.70507648089216,-10.5251179531972
1.06853079137221,8.81043506764956,-13.7228515825946,5.90863229715181,16.8228154435303,-12.4875301509453,-0.463143428918869,5.04374130622825,-28.5667047551578,-8.18463688761907,-10.1482454993938
