Finger Velocity,Scap_X,Scap_Y,Scap_Z,Shoulder horiz abd-adduction,Shoulder flexion-extension,Shoulder internal-external rotation,elbow flexion-extension,forearm pronation-supination,wrist flexion-extension,wrist radial-ulnar deviation
1.2592347157432,-12.8561634550646,-12.0602989571959,-0.116043792056396,-5.55197920475519,-49.498599227969,4.66024547965769,57.0871156705687,-31.8690160030401,-4.71446416042392,-14.8113599012848
1.51568409692824,-12.8568862754891,-12.0618439476216,-0.111644383489819,-5.57157860448922,-49.4828399556806,4.64177174817099,57.048747524871,-31.7872695057332,-4.96766570558384,-14.6251645165128
1.78447225815272,-12.856825341466,-12.0632493785175,-0.107887383860979,-5.59462651799702,-49.4707428196946,4.62364269492209,57.0096750461922,-31.6829081481657,-5.29972189043114,-14.3794932678603
2.06332911135756,-12.856062401964,-12.0645746157893,-0.104867592173133,-5.62074063221846,-49.4628313396185,4.60627840617581,56.9704255133069,-31.5537381929536,-5.71557178806158,-14.0705003204673
2.34982883543516,-12.8547158216855,-12.0658854632842,-0.102686190838831,-5.64937423105212,-49.4595807068987,4.5901457645609,56.9315444007209,-31.3976297481492,-6.21901955475226,-13.6952657815408
2.64139399949087,-12.8529427637741,-12.0672522519686,-0.101451438701213,-5.67980380704113,-49.4614019870746,4.57575651614235,56.8935797311594,-31.2125421037096,-6.81253760153275,-13.2519716365208
2.93531610689681,-12.8509405725157,-12.0687475468227,-0.101279434208085,-5.71111911656721,-49.4686264711902,4.56366451518658,56.8570647861246,-30.9965484191064,-7.49709300619735,-12.7400590809537
3.22878570415892,-12.8489472252326,-12.0704434955924,-0.10229490734463,-5.74221618910334,-49.4814906069921,4.55446212671536,56.8224995642335,-30.7478595933915,-8.27200735687734,-12.1603571626675
3.51892859403384,-12.8472407355771,-12.0724088565242,-0.104631994287975,-5.77179377146519,-49.5001219650969,4.54877577106358,56.7903314533022,-30.4648472385865,-9.13486040510075,-11.5151722729711
3.80284608074645,-12.846137409295,-12.0747057580567,-0.108434947056742,-5.79835363795555,-49.5245266992974,4.5472606013786,56.7609356390341,-30.1460657382007,-10.0814473924803,-10.8083283925532
4.07765778098481,-12.8459888785535,-12.0773862625614,-0.113858729527241,-5.82020513148801,-49.5545789379268,4.55059431167379,56.7345958079238,-29.7902733901706,-11.1057984524485,-10.0451493638061
4.34054581607269,-12.8471778722841,-12.0804888262349,-0.12106944870349,-5.83547422522011,-49.5900124946294,4.55947007639918,56.7114857148298,-29.3964526038807,-12.2002658895401,-9.23237700991215
4.58879934520588,-12.8501127170281,-12.0840347638539,-0.130244565622184,-5.84211731280088,-49.6304152174452,4.57458862314191,56.6916521779689,-28.9638290516905,-13.3556813709871,-8.37802267775559
4.81985848857336,-12.8552206035261,-12.0880248364906,-0.141572826136409,-5.83793984716077,-49.675226212731,4.59664944411517,56.6750000371604,-28.4918895799047,-14.5615803343693,-7.49115454203872
5.03135676025452,-12.8629396964146,-12.0924360808289,-0.155253851174651,-5.8206198485398,-49.7237360923635,4.6263411658025,56.6612795663044,-27.9803985729863,-15.8064856765242,-6.58162832207418
5.22116120188641,-12.8737102061596,-12.0972189919508,-0.171497329835636,-5.78773618945921,-49.7750903033153,4.66433111945329,56.6500767686065,-27.4294123419735,-17.078237675579,-5.65977429230295
5.38740948754968,-12.8879645824907,-12.102295162106,-0.190521765326048,-5.73680143962426,-49.828295508915,4.71125418200567,56.6408069025396,-26.839290977494,-18.3643528127747,-4.7360578837448
5.52854336139887,-12.9061170257568,-12.1075554716706,-0.212552731694878,-5.66529892179019,-49.8822289009782,4.76770098150066,56.6327114907362,-26.2107069842312,-19.6523913619821,-3.82073407623704
5.64333787258503,-12.9285525457539,-12.1128589278429,-0.237820608478547,-5.57072349396873,-49.9356502349526,4.83420558132617,56.6248589618322,-25.5446499247787,-20.9303127796315,-2.92351664512468
5.73092598532374,-12.9556158261653,-12.1180322493211,-0.266557771246632,-5.45062543721285,-49.9872163031623,4.91123277481467,56.6161489776075,-24.8424262767153,-22.1867992274323,-2.05328194260399
5.79081826230007,-12.9876001756273,-12.1228702964029,-0.298995228750517,-5.30265669654923,-50.0354975006479,4.99916513854524,56.6053204106656,-24.1056537677214,-23.4115308138406,-1.21782344113137
5.82291744218938,-13.0247368608823,-12.1271374411743,-0.335358712721217,-5.1246186006677,-50.07899609714,5.09829001598899,56.5909628602606,-23.3362496041824,-24.5954008587366,-0.423668271231341
5.82752785035992,-13.0671851216946,-12.1305699587684,-0.375864245243602,-4.9145100775095,-50.1161658072845,5.20878664146389,56.5715315199887,-22.5364122385551,-25.7306649699806,0.324038796455513
5.80535968700106,-13.1150231635387,-12.1328794960413,-0.420713228888889,-4.67057529183273,-50.1454322479411,5.33071366853745,56.5453651354479,-21.7085966096042,-26.8110231950855,1.02158422631817
5.75752831711033,-13.1682404166596,-12.1337576377887,-0.470087122758664,-4.39134956085296,-50.1652138852983,5.46399743009598,56.5107067118802,-20.8554831139267,-27.8316392855058,1.66667275522402
5.68554872587015,-13.226731338138,-12.1328815446894,-0.524141785049176,-4.07570235538977,-50.1739431055637,5.60842132730961,56.4657265556001,-19.9799409015646,-28.7891047223111,2.25836166354711
5.59132527918165,-13.2902910102042,-12.129920585525,-0.583001587202731,-3.72287616532522,-50.1700870895935,5.76361682685851,56.4085471656567,-19.0849864046848,-29.681357424008,2.79695366241565
5.47713681358544,-13.3586127479159,-12.1245438335913,-0.646753439490883,-3.33252000416376,-50.1521682287735,5.92905663623472,56.3372694421787,-18.1737382809872,-30.5075660532847,3.28386065572418
5.34561683566564,-13.4312878757797,-12.1164282478948,-0.715440904846004,-2.90471636076528,-50.1187838774626,6.10405070162134,56.2499996543403,-17.2493701685714,-31.267990768491,3.72145026035547
5.1997281952057,-13.5078077757454,-12.1052673174134,-0.789058603279178,-2.44000049052395,-50.068625285359,6.28774569868764,56.1448766185581,-16.3150628004083,-31.9638304067719,4.11288563301876
5.04273096679045,-13.5875682555184,-12.0907799143996,-0.867547116611804,-1.93937107898225,-50.0004955830289,6.479128643674,56.0200985716301,-15.3739571061632,-32.597064729532,4.46196720374712
4.87814140888876,-13.6698762350144,-12.0727190824138,-0.95078859746967,-1.40429150460705,-49.9133267030529,6.67703514310698,55.8739492732487,-14.429109927301,-33.1702987571707,4.77298269353254
4.70967880307876,-13.7539586932176,-12.0508804771421,-1.03860327682475,-0.836681167558437,-49.8061951103192,6.88016263974521,55.7048229313739,-13.4834538893954,-33.6866145579188,5.05056957647381
4.54119586707664,-13.8389737531666,-12.0251101819003,-1.13074705434061,-0.238896632832358,-49.6783361926647,7.08708880888273,55.5112476152973,-12.5397628280709,-34.1494342743493,5.29959213909261
4.37658765456485,-13.9240237107563,-11.9953116325947,-1.226910341179,0.386297344869821,-49.5291571330514,7.29629501282189,55.2919069067869,-11.6006239601068,-34.5623967727255,5.52503363066653
4.21967407051492,-14.0081697385903,-11.9614514070716,-1.32671830025076,1.03576649877442,-49.3582480530172,7.50619443498671,55.0456596283831,-10.6684177132361,-34.9292491557855,5.73190277690676
4.07405329761721,-14.0904479250066,-11.9235636617266,-1.42973259289689,1.70605465247229,-49.1653911897155,7.71516420625565,54.7715575618432,-9.74530575679681,-35.2537535250772,5.92515317589952
3.94292852882674,-14.1698862468105,-11.8817530353999,-1.53545469583789,2.39343911680018,-48.9505678502634,7.92158053438281,54.4688611196565,-8.83322732083291,-35.5396088108174,6.10961377534642
3.82891878062944,-14.2455220288727,-11.8361958867092,-1.64333080014029,3.09399243112609,-48.713962883067,8.12385558264031,54.1370529602563,-7.9339033982812,-35.7903871730672,6.28992866470105
3.73387496009278,-14.3164194201497,-11.7871397841271,-1.75275824632497,3.80364873269545,-48.4559664227007,8.32047463889451,53.7758495477065,-7.04884795016373,-36.009484360272,6.4705047045006
3.65873122929241,-14.3816864163341,-11.7349012262585,-1.86309338869026,4.51827284268895,-48.1771727067319,8.51003199082789,53.3852106523407,-6.17938483003925,-36.2000834016714,6.65546594369317
3.60342392940856,-14.4404909826454,-11.6798616309264,-1.97366072184243,5.2337300504426,-47.8783758288269,8.69126389830507,52.965346771339,-5.32666885507086,-36.3651310207192,6.8486142364912
3.56690190266575,-14.4920758712278,-11.6224616921932,-2.08376304964569,5.94595456929905,-47.5605623778361,8.86307714760096,52.5167244176512,-4.49170930519507,-36.5073261281213,7.05339587970019
3.54723358583215,-14.5357717804464,-11.5631942588729,-2.19269243688282,6.65101472942359,-47.2249010100964,9.02457188582922,52.040069183041,-3.67539413620158,-36.6291196283131,7.27287437591317
3.54179411536156,-14.5710085641567,-11.5025959317759,-2.29974165878161,7.34517315301542,-46.8727291027362,9.17505774700014,51.5363664299911,-2.87851333057217,-36.73272450173,7.50970953229189
3.54749890607163,-14.5973242658971,-11.4412376090245,-2.40421585131394,8.02494040623048,-46.5055367292097,9.31406265866035,51.0068594138247,-2.10178004317482,-36.820134734725,7.76614304012317
3.56104493190061,-14.6143718244142,-11.3797142319791,-2.50544406241671,8.68712091818454,-46.1249482762955,9.44133412197824,50.453044589053,-1.34584847861461,-36.8931512784744,8.04399052906878
3.579127247429,-14.6219233708293,-11.3186340012781,-2.60279040854207,9.32885028059918,-45.7327020806588,9.55683315419594,49.8766638235694,-0.611327723550477,-36.9534129503393,8.34463994294616
3.5986111462936,-14.6198721110325,-11.2586073426513,-2.69566455146975,9.94762337621702,-45.3306285039178,9.66072144317739,49.2796932422473,0.101208966010925,-37.0024300934059,8.66905598298082
3.61665367676067,-14.6082318556354,-11.2002359030338,-2.7835312277014,10.5413131191935,-44.9206268912259,9.75334257040995,48.6643284558056,0.791219650575169,-37.0416188523727,9.01779029597339
3.63077803533014,-14.5871343196166,-11.1441018485245,-2.86591858842029,11.1081799169965,-44.5046418711691,9.83519839909395,48.032966004171,1.45819391583868,-37.0723340468698,9.3909970123477
3.63890952851086,-14.5568243614692,-11.090757719232,-2.94242514333666,11.6468722692837,-44.0846394524371,9.90692188951713,47.3881809528102,2.10165746714976,-37.0958987826242,9.78845314179161
3.63938317223341,-14.5176533667844,-11.0407170741666,-3.01272514651177,12.1564191906986,-43.6625833529108,9.96924769027776,46.7327007161759,2.72118049106643,-37.1136291226041,10.2095832189855
3.63093208765128,-14.4700710059538,-10.9944461317706,-3.07657231354277,12.6362153674609,-43.2404119609055,10.0229818621314,46.0693753308633,3.31638891332942,-37.1268523533596,10.653487481878
3.61266396904675,-14.4146156131761,-10.9523565772849,-3.13380181297221,13.086000120956,-42.8200162826397,10.0689720268268,45.4011445501895,3.88697749222918,-37.1369176490413,11.1189727871705
3.58403088912098,-14.3519034465073,-10.9147996676537,-3.18433052753802,13.5058313504003,-42.4032191825261,10.1080791042026,44.7310022753815,4.43272358990189,-37.1451982845772,11.6045854445004
3.54479598083062,-14.2826170966322,-10.8820617208383,-3.22815563189038,13.8960556627206,-41.9917561791616,10.1411516173934,44.061958973699,4.95350047928465,-37.1530850018534,12.1086451926944
3.49499922010473,-14.207493314095,-10.854361031959,-3.26535158151911,14.2572758757816,-41.5872580210712,10.1690033229949,43.3970028549758,5.44928916267523,-37.1619706891826,12.6292796425131
3.43492361018248,-14.1273105197628,-10.8318462150736,-3.29606565086663,14.5903170078586,-41.1912352309871,10.1923946807814,42.739060673859,5.92018786769795,-37.173227151545,13.1644586457589
3.36506245977267,-14.0428762515621,-10.8145959279212,-3.32051219553144,14.8961917546716,-40.8050647753792,10.2120184393263,42.0909590830401,6.36641861099538,-37.1881753294224,13.712028180346
3.28608806955612,-13.9550147831776,-10.8026199000868,-3.33896584368828,15.1760663242188,-40.4299789882126,10.2284893990115,41.4553874762036,6.78833045225204,-37.2080507515074,14.2697434286419
3.19882192264276,-13.8645551285093,-10.7958611560837,-3.35175384502345,15.4312273658278,-40.0670568538614,10.2423382327025,40.834863228891,7.18639928509266,-37.2339662152443,14.8353007620018
3.10420635968007,-13.7723196200938,-10.7941993058238,-3.35924782094358,15.6630506007621,-39.717217730307,10.2540090994843,40.2317001766086,7.561224212152,-37.2668737004708,15.4063683463358
3.00327766957289,-13.6791132216074,-10.7974547654444,-3.36185516663483,15.8729716373811,-39.3812175665895,10.2638606773895,39.6479810700972,7.91352071262026,-37.3075274116292,15.980615080463
2.89714051596178,-13.58571370543,-10.8053937694174,-3.36001035263457,16.0624593332398,-39.0596476363238,10.2721701641537,39.0855346261757,8.24411092049633,-37.3564496793858,16.5557375898343
2.78694363056756,-13.4928627972345,-10.8177340375949,-3.35416636030937,16.2329919509943,-38.7529357719214,10.2791397461618,38.5459176569247,8.55391139110328,-37.4139012564661,17.1294850252384
2.6738567264172,-13.4012583615329,-10.8341509655441,-3.3447864625624,16.3860362469612,-38.4613500424786,10.2849050096331,38.0304026161596,8.84391875549792,-37.4798573095683,17.6996814521974
2.55904861032106,-13.3115476762672,-10.8542842112109,-3.33233653008128,16.5230295325554,-38.1850047722334,10.2895447612928,37.5399707532748,9.11519366940514,-37.553990131645,18.2642456569594
2.44366650127032,-13.2243218223484,-10.8777445550612,-3.31727800702394,16.645364661665,-37.9238687470213,10.2930917379095,37.075310912649,9.36884347770167,-37.6356592798968,18.8212082409325
2.32881658830962,-13.140111196557,-10.9041209145872,-3.30006166061223,16.7543778241914,-37.6777754064924,10.2955437150404,36.6368238651864,9.6060040495747,-37.7239095014719,19.3687259311138
2.21554588813644,-13.0593821430556,-10.9329873975724,-3.28112216888079,16.851338969775,-37.4464347737787,10.2968745713914,36.2246319116151,9.82782128804739,-37.8174764752637,19.9050931001964
2.1048254905194,-12.9825346880334,-10.9639102819673,-3.26087357224399,16.9374446464262,-37.2294468332238,10.2970449195331,35.8385933583946,10.0354328592569,-37.9148001219124,20.428750561747
1.99753531047953,-12.9099013513368,-10.9964548137297,-3.23970557984427,17.0138130151691,-37.0263160316019,10.2960119699229,35.4783213398785,10.229950696362,-38.0140450562034,20.9382917740426
1.89445050159949,-12.8417469969229,-11.0301917173982,-3.2179806923087,17.0814807926217,-36.8364665526999,10.2937383506146,35.1432063501901,10.4124447952931,-38.1131276849138,21.4324666393546
1.79622972482156,-12.7782696704272,-11.0647033177811,-3.19603207948624,17.1414018776263,-36.6592580036882,10.2901996617054,34.8324417616195,10.5839287369629,-38.2097494516028,21.9101831108714
1.70340550856096,-12.7196023577376,-11.0995891763674,-3.17416213558823,17.194447433307,-36.4940011548339,10.2853906042231,34.5450515473321,10.7453472610715,-38.3014357333447,22.3705068089836
1.61637697115776,-12.6658155844659,-11.1344711550076,-3.15264162511008,17.2414072179043,-36.3399733883719,10.2793295863091,34.2799193964431,10.8975661069111,-38.3855798619827,22.8126588120134
1.53540519258064,-12.6169207640222,-11.1689978337837,-3.13170933083826,17.282991980972,-36.1964335345151,10.2720617701052,34.0358184112458,11.0413642490051,-38.4594916906763,23.2360117552138
1.46061150187097,-12.5728741923387,-11.2028482296509,-3.11157211953241,17.3198367613138,-36.0626358020487,10.2636605770183,33.8114406114126,11.1774285968661,-38.5204501018629,23.6400843820075
1.39197887342783,-12.5335815798828,-11.2357347848684,-3.09240535002808,17.3525049364903,-35.9378425484544,10.2542277169807,33.6054255343606,11.3063511902439,-38.5657588726285,24.0245347613108
1.32935648992263,-12.4989030059943,-11.267405615819,-3.07435356028987,17.3814928804852,-35.8213356794704,10.243891850147,33.4163873033956,11.4286288905552,-38.5928053429098,24.3891525087263
1.27246733942621,-12.4686581771627,-11.2976460311705,-3.05753138210486,17.4072350886665,-35.7124265179318,10.2328060265423,33.2429396238155,11.5446655355706,-38.599121311946,24.7338505060331
1.22091849742338,-12.442631870997,-11.326279342802,-3.04202464312422,17.4301096314994,-35.6104640344466,10.2211440779849,33.0837182572896,11.6547764806942,-38.582445481262,25.0586567770548
1.17421354748215,-12.420579452693,-11.3531670036591,-3.02789162529485,17.4504438032406,-35.5148413868427,10.2090961554212,32.9374006190675,11.7591953913844,-38.5407865756427,25.3637073274286
1.13176647007262,-12.4022323607489,-11.3782081142866,-3.01516445651174,17.4685198386817,-35.4250007692851,10.1968636149839,32.8027222436896,11.8580830785761,-38.4724860458199,25.6492408762758
1.0929163167649,-12.3873034718383,-11.4013383456598,-3.00385061901274,17.4845805778033,-35.3404366212287,10.1846534616649,32.6784899710987,11.9515380923982,-38.3762790218185,25.9155964840164
1.05694209553361,-12.3754922690282,-11.4225283318912,-2.99393456435009,17.4988349642295,-35.2606972865352,10.1726725639587,32.5635918106667,12.0396087238638,-38.2513519501762,26.1632150862676
1.02307749415207,-12.3664897518922,-11.4417815928858,-2.98537943120005,17.5114632706295,-35.1853852422173,10.1611218556208,32.4570035388342,12.1223060213641,-38.0973951032817,26.3926458362768
0.990525307088945,-12.3599830413712,-11.4591320523844,-2.97812886789334,17.5226219555905,-35.1141560357829,10.1501907374847,32.3577921715715,12.1996174112315,-37.9146479053878,26.6045578841684
0.958471644197029,-12.3556596462673,-11.4746412185232,-2.97210896422211,17.5324480733796,-35.0467160838797,10.1400518795879,32.2651165244385,12.2715205115493,-37.7039348251292,26.799757739708
0.926100138620668,-12.3532113712492,-11.4883950911217,-2.96723029534114,17.5410631797142,-34.9828194964361,10.1308566017301,32.1782251335187,12.337996734217,-37.4666895123134,26.9792116848045
0.892606416413426,-12.3523378571079,-11.5005008542609,-2.96339007484969,17.5485767008976,-34.9222641005185,10.1227309808251,32.0964518631922,12.3990442767134,-37.2049649789589,27.1440718958498
0.857213049756719,-12.3527497515813,-11.5110834076269,-2.96047440597686,17.555088757475,-34.8648868448749,10.1157727972619,32.0192095719454,12.4546901173788,-36.9214279783978,27.2957041153862
0.819185117547657,-12.3541715128405,-11.5202817877992,-2.95836061085931,17.5606924545668,-34.8105587683006,10.1100493915113,31.9459822434456,12.5050006569788,-36.6193362895169,27.4357139839637
0.777846376766865,-12.3563438481906,-11.5282455319508,-2.95691960947323,17.565475668054,-34.7591797128045,10.1055964596723,31.8763160159529,12.5500907011066,-36.3024982623222,27.5659685924114
0.732595937782601,-12.3590257891831,-11.5351310412608,-2.95601831261892,17.56952236827,-34.7106729565172,10.1024177769517,31.8098095591838,12.5901305485379,-35.9752146471181,27.6886095304523
0.682925262157619,-12.3619964029364,-11.5410980087666,-2.95552198784221,17.5729135300457,-34.664979931205,10.1004858047583,31.7461042546158,12.6253510268368,-35.6422034701135,27.8060538073967
0.628435285844035,-12.365056139411,-11.5463059840654,-2.95529655375473,17.5757276794033,-34.6220551755581,10.0997431119967,31.6848746333509,12.6560463824442,-35.3085096538838,27.9209796174599
0.568853551988476,-12.3680278162732,-11.5509111524284,-2.95521075732344,17.578041123939,-34.5818616595305,10.1001045247407,31.6258195148445,12.6825749772855,-34.979402191048,28.0362950294542
0.504051517898638,-12.3707572466401,-11.55506340639,-2.95513819040128,17.5799279084825,-34.5443665984417,10.1014599106518,31.568654269051,12.7053577668494,-34.6602627401429,28.1550891502664
0.434063007261012,-12.373113519731,-11.5589037827643,-2.95495910548695,17.5814595319483,-34.5095378588073,10.1036775050262,31.5131045928159,12.7248745438732,-34.3564702277737,28.280566872985
0.359107309950906,-12.3749889493438,-11.5625623278877,-2.95456199542893,17.582704454882,-34.4773410400451,10.1066076929304,31.4589021491121,12.741657938151,-34.0732862011608,28.4159696942218
