Finger Velocity,Scap_X,Scap_Y,Scap_Z,Shoulder horiz abd-adduction,Shoulder flexion-extension,Shoulder internal-external rotation,elbow flexion-extension,forearm pronation-supination,wrist flexion-extension,wrist radial-ulnar deviation
0.826015329182248,-6.69962008252615,-17.030550394185,2.20753638826299,-33.9927544430154,-52.0584884978988,-27.2038669377156,89.9521327537922,-32.0765125847936,29.7833464094947,-34.6977650410279
0.976541739951662,-6.70907143108791,-16.9822012758637,2.18397924107308,-33.9907142940053,-52.1352353751771,-27.0383734180973,89.8760005644661,-31.8073197540804,29.646612927293,-34.5125443632964
1.13436334521517,-6.7184131761407,-16.9375963727846,2.16192676328337,-33.9849456824885,-52.2102413027722,-26.8689190590561,89.7987807230442,-31.5318292530221,29.4869114071502,-34.3018878394659
1.29831483727378,-6.72797369114016,-16.8971696926529,2.14145532297326,-33.9750599712064,-52.2823345400704,-26.6965299690955,89.7205991221735,-31.2503442663752,29.3023184687163,-34.0644201438294
1.46715628676499,-6.73812387945944,-16.8612731819603,2.12259876908223,-33.9607229553657,-52.3503405129238,-26.5222470799024,89.6415292485169,-30.963042244751,29.0909859444475,-33.7988612177232
1.63957857450693,-6.74926984090336,-16.8301689278145,2.10534649260963,-33.9416625347811,-52.4131014933481,-26.3471068214282,89.5615867301693,-30.6699721680199,28.8511880432653,-33.5040574344425
1.81421564142748,-6.7618443525437,-16.8040238005122,2.08964313904343,-33.9176744343777,-52.4694950706132,-26.1721226311043,89.4807248493806,-30.3710568387606,28.5813702286739,-33.1790136784813
1.98966096853717,-6.77629736080203,-16.7829066309139,2.07538986806722,-33.8886255818636,-52.5184509725455,-25.9982676123776,89.3988310702864,-30.0660998915453,28.2801978716435,-32.8229247671293
2.1644868376513,-6.79308570791041,-16.766787927388,2.06244700004742,-33.8544548669885,-52.5589658994938,-25.8264586134137,89.3157246220286,-29.7547969722398,27.9466024713481,-32.4352044011405
2.33726542931852,-6.81266233004737,-16.7555420636896,2.05063784157097,-33.8151711351922,-52.5901161397864,-25.6575419313942,89.2311551745841,-29.4367503616774,27.5798230796132,-32.0155096971522
2.50659104928534,-6.83546516909717,-16.7489518053136,2.03975344410064,-33.7708484087022,-52.6110678385384,-25.4922807736928,89.1448026435317,-29.1114861933083,27.1794405473256,-31.563759350178
2.67110288819621,-6.86190604125009,-16.7467149765933,2.02955802322086,-33.7216184802886,-52.6210848908884,-25.3313445470416,89.05627815768,-28.7784733417447,26.7454023647298,-31.0801436294333
2.82950777683424,-6.8923597095774,-16.7484529975481,2.01979475401247,-33.6676611829807,-52.6195345266034,-25.1753000169647,88.9651262185395,-28.4371430354521,26.2780362204651,-30.5651247559231
2.98060243145781,-6.9271534153303,-16.753720946701,2.01019166502401,-33.6091927889376,-52.6058907379267,-25.0246043828524,88.8708280730531,-28.0869082722013,25.7780509710031,-30.0194267653611
3.1232947051691,-6.96655712906152,-16.7620187536477,2.00046738338,-33.5464531145743,-52.579735761863,-24.8796003346332,88.7728063113988,-27.7271821910378,25.2465244807431,-29.4440147171515
3.25662337861337,-7.01077478158399,-16.7728031055077,1.99033653389251,-33.4796919914954,-52.5407598563589,-24.7405131757888,88.6704306906629,-27.3573946781707,24.6848787128785,-28.840064016684
3.37977603964817,-7.05993672294247,-16.7854996622937,1.9795146538175,-33.4091557929136,-52.4887596161101,-24.6074500974989,88.5630251736393,-26.9770066536113,24.0948434349612,-28.2089215758212
3.49210461792459,-7.1140936336237,-16.7995152121955,1.96772254134901,-33.3350746794962,-52.4236350667599,-24.4804016600379,88.4498761601141,-26.5855216961531,23.4784108446743,-27.5520614244862
3.5931381565847,-7.17321207580718,-16.8142494543701,1.95469000727076,-33.2576511551233,-52.3453857569239,-24.3592454826827,88.3302418727108,-26.1824949055535,22.837784211021,-26.8710380850124
3.68259241918705,-7.23717182520248,-16.8291061655448,1.94015904591678,-33.1770504190705,-52.2541060363066,-24.2437520754792,88.2033628335162,-25.7675391513988,22.1753241532243,-26.1674414206238
3.76037594547167,-7.30576506959095,-16.8435035773152,1.92388648151495,-33.0933928829788,-52.1499796692883,-24.1335926770665,88.0684733243675,-25.3403290883272,21.4934963421796,-25.4428566798581
3.8265921854575,-7.37869750328366,-16.856883856351,1.90564617440472,-33.0067490990479,-52.0332738927281,-24.0283488970763,87.9248136635675,-24.9006034961703,20.7948241501843,-24.6988330376303
3.88153735989906,-7.4555912924037,-16.868721633659,1.88523088406908,-32.9171372269781,-51.9043329923587,-23.9275239016476,87.7716430660938,-24.4481666082974,20.0818491221828,-23.9368631204029
3.92569372075362,-7.53598983816044,-16.8785315666547,1.86245388029503,-32.8245230551486,-51.7635714514264,-23.8305548285553,87.6082527991225,-23.982889113904,19.3571012121711,-23.1583749252021
3.95971792526568,-7.61936422495662,-16.8858749400777,1.83715037249407,-32.7288224866669,-51.6114667190635,-23.7368260750477,87.4339793110994,-23.5047094678551,18.6230796824189,-22.3647363751849
3.98442430200724,-7.70512120544289,-16.8903653230033,1.80917879737317,-32.6299063034545,-51.4485516505918,-23.6456830689031,87.2482170014623,-23.0136360329837,17.8822445487977,-21.5572716566829
4.00076289020421,-7.79261254342027,-16.8916732999381,1.77842197641662,-32.527606935713,-51.2754066848088,-23.5564461195315,87.0504303020544,-22.5097504346111,17.1370175681559,-20.7372875523756
4.00979229028727,-7.8811455063587,-16.889530283802,1.74478813761869,-32.4217268976266,-51.0926518397821,-23.468423961626,86.8401647516789,-21.9932123430521,16.389791038808,-19.9061072595574
4.01264758838804,-7.96999427173936,-16.8837314026974,1.7082117977353,-32.3120485075207,-50.9009386194674,-23.3809266515563,86.617056758619,-21.4642657310683,15.6429421260786,-19.0651086687237
4.01050391971372,-8.05841198763572,-16.8741374388119,1.6686545174615,-32.1983444871959,-50.7009419228099,-23.2932775458014,86.3808417655837,-20.9232464894715,14.8988500395723,-18.215763784228
4.00453661310981,-8.1456432139817,-16.8606757894531,1.6261055553036,-32.080389019714,-50.4933520414128,-23.2048241644182,86.1313605648674,-20.3705911290121,14.1599131995115,-17.3596759076193
3.99587929098072,-8.23093647397586,-16.8433404128244,1.58058243941113,-31.9579688317065,-50.2788668356111,-23.1149478114154,85.8685635653501,-19.8068461499336,13.4285635556225,-16.4986113738571
3.98558174062029,-8.31355666718212,-16.8221907098548,1.53213144640774,-31.8308938604422,-50.0581842008948,-23.0230718892407,85.5925128880859,-19.2326775253079,12.7072754659448,-15.6345230054167
3.97456975608187,-8.39279712904158,-16.7973492818428,1.48082793399014,-31.6990070784166,-49.8319949717243,-22.9286689083271,85.3033822558202,-18.6488796337097,11.9985669865804,-14.76956298666
3.96360938827684,-8.4679911496826,-16.7689985057512,1.42677644037702,-31.5621930883346,-49.6009764391399,-22.8312662502276,85.0014547306037,-18.0563829106854,11.3049920327101,-13.9060835154635
3.95327804952339,-8.5385227760924,-16.7373758983353,1.37011045608288,-31.4203851704408,-49.3657866618841,-22.7304507867396,84.6871184305436,-17.4562594798901,10.629122604895,-13.0466243254657
3.94394463637697,-8.60383671862,-16.7027682978063,1.31099179454531,-31.2735705523601,-49.1270597196127,-22.625872481985,84.360860415076,-16.8497260700257,9.97352108975252,-12.1938869674417
3.93576024974768,-8.66344717893272,-16.6655049645644,1.24960952500627,-31.1217937625612,-48.8854019983837,-22.5172471072955,84.023258967729,-16.2381436089185,9.34070349012361,-11.3506965691895
3.92866025699503,-8.71694542270096,-16.6259497734774,1.18617846698,-30.9651580095472,-48.641389529613,-22.4043581806846,83.6749745305576,-15.6230130046361,8.73309525000031,-10.5199526168854
3.92237747096515,-8.76400593776498,-16.5844927264868,1.12093727066414,-30.803824596061,-48.395566341229,-22.2870582078947,83.3167395610168,-15.0059667811799,8.15298203416444,-9.70457104946058
3.91646526698835,-8.80439104327183,-16.5415410506536,1.05414612145878,-30.6380104355733,-48.1484437332821,-22.1652692590534,82.9493475936083,-14.3887564355089,7.6024583246401,-8.90742055628341
3.91032867107095,-8.8379538441126,-16.49751016319,0.986084115275869,-30.467983796201,-47.9005003590293,-22.0389828762526,82.5736417948216,-13.7732356096439,7.0833769440166,-8.13125635298306
3.90326094224826,-8.86463945798516,-16.4528147843322,0.91704635994315,-30.2940584599254,-47.6521829718572,-21.9082592830972,82.1905032978401,-13.1613394029682,6.59730257413462,-7.37865483417205
3.89448298697957,-8.88448448046872,-16.4078604650865,0.847340866863592,-30.1165865477833,-47.4039076867224,-21.773225858945,81.8008395914781,-12.5550603655236,6.14547201353803,-6.65195234823653
3.88318306399328,-8.89761469478993,-16.363035774007,0.77728530229624,-29.9359503148991,-47.1560616042019,-21.6340748408572,81.4055732173133,-11.956421898156,5.72876336144223,-5.95319093721204
3.86855459314598,-8.90424107291016,-16.3187053578463,0.707203665106611,-29.7525532554186,-46.9090046577406,-21.4910602145853,81.0056310034881,-11.3674499267908,5.34767561390017,-5.2840733063352
3.8498303755962,-8.90465414979097,-16.2752040557886,0.637422944987123,-29.5668108729081,-46.6630715694559,-21.3444937452721,80.6019340363097,-10.790143805525,5.00231940171599,-4.64592862343925
3.82631207007195,-8.89921688368617,-16.2328322053021,0.568269792100602,-29.3791414676386,-46.4185738326442,-21.194740082156,80.1953885429303,-10.2264474283455,4.69241887416698,-4.0396900786382
3.79739427608096,-8.88835614491106,-16.1918522281079,0.500067201721094,-29.1899572756829,-46.1758016736567,-21.0422108649774,79.7868778290768,-9.67822148517464,4.41732410408274,-3.46588451527984
3.76258300214195,-8.87255300622542,-16.1524865264753,0.433131197405417,-28.999656275167,-45.9350259762215,-20.8873577822683,79.3772553817581,-9.14721768512774,4.17603289963141,-2.92463390293684
3.72150862489233,-8.85233204079711,-16.1149166552533,0.367767493163459,-28.8086149541609,-45.6965001740839,-20.7306645897983,78.9673392050513,-8.63505560330419,3.9672205734585,-2.41566797180017
3.67393367324771,-8.82824986818011,-16.079283671095,0.304268129169764,-28.6171823052238,-45.4604621310549,-20.5726381780705,78.5579074094777,-8.14320261377944,3.78927603604895,-1.93834696260934
3.61975591336708,-8.80088322203344,-16.0456895072727,0.242908101382544,-28.4256752677762,-45.2271360289046,-20.4137988617733,78.1496950313843,-7.67295718037773,3.6403425240782,-1.49169315845762
3.55900728337821,-8.77081684021356,-16.0141991873703,0.183942039205479,-28.2343757850863,-44.996734271728,-20.2546701424526,77.7433920287893,-7.22543561388565,3.51836131664233,-1.07442964993956
3.49184925058346,-8.73863149243273,-15.9848436758941,0.127601022076383,-28.0435295835778,-44.7694593937572,-20.0957682656184,77.3396423869443,-6.80156228636681,3.42111691099136,-0.685024648133505
3.41856515477246,-8.70489245865374,-15.9576231676961,0.0740896537563916,-27.8533467150494,-44.5455059345193,-19.9375919450653,76.9390442623767,-6.40206322285973,3.34628230864059,-0.32173960527652
3.33955007230624,-8.67013875232742,-15.9325106387864,0.0235835185762461,-27.6640038180561,-44.3250622297036,-19.7806126447913,76.5421510866738,-6.02746295496802,3.29146328073338,0.0173205761132777
3.25529869613312,-8.63487335008849,-15.9094555132073,-0.0237728766274124,-27.4756479526288,-44.1083120616304,-19.6252657866246,76.1494735337457,-5.67808449843866,3.25424070856338,0.334156883899716
3.16639168304898,-8.59955464905545,-15.8883873359543,-0.0678676074870339,-27.2884017582037,-43.8954361160691,-19.4719432008632,75.7614822273298,-5.35405229160561,3.23221029418884,0.630826605294814
3.07348087517678,-8.5645893289657,-15.8692193728543,-0.108622252911036,-27.1023696011393,-43.6866131956615,-19.320987076766,75.3786110347747,-5.05529789926066,3.22301906520679,0.909396192813758
2.97727376011059,-8.53032675174572,-15.8518520806971,-0.145992227148081,-26.9176443297499,-43.4820211415911,-19.1726856102087,75.0012607655522,-4.78156825026248,3.22439813855123,1.17189785354195
2.87851749487421,-8.49705498712121,-15.83617640465,-0.179966535340495,-26.7343142395677,-43.2818374172951,-19.0272704845461,74.6298030736598,-4.53243614144528,3.23419120534915,1.42029099088511
2.77798278387077,-8.46499850982024,-15.8220768677235,-0.210566976578894,-26.5524698598483,-43.0862393145812,-18.8849162498605,74.26458435416,-4.30731270930857,3.25037824332931,1.65642942752186
2.6764478714486,-8.43431757154899,-15.8094344225588,-0.237846828553108,-26.3722101982409,-42.8954037531752,-18.7457415831668,73.9059294255672,-4.10546154684959,3.27109411183109,1.88203505630065
2.57468288688415,-8.4051092092498,-15.798129041917,-0.261889057501474,-26.1936481235668,-42.7095066571137,-18.6098123229784,73.5541448021087,-3.92601412519981,3.294641915904,2.09867823624663
2.47343476497132,-8.37740981095066,-15.7880420315214,-0.282804106904173,-26.0169146253345,-42.5287219059595,-18.4771460827344,73.2095213846251,-3.76798616859206,3.31950128424147,2.30776491996187
2.37341296045289,-8.35119912279316,-15.7790580559817,-0.300727328243056,-25.8421617584863,-42.3532198776339,-18.3477181649684,72.8723364365101,-3.63029462967321,3.34433194729147,2.51053019526669
2.27527618016321,-8.32640554619375,-15.7710668739265,-0.315816126046501,-25.669564159307,-42.1831656219721,-18.2214684315546,72.5428547590004,-3.5117749229329,3.36797318811246,2.70803767486761
2.17962037267918,-8.30291254274205,-15.763964781757,-0.328246895704461,-25.4993191016346,-42.0187167257491,-18.0983087477662,72.2213290332142,-3.41119809714354,3.38943982960836,2.90118400456118
2.08696823911381,-8.28056593675173,-15.7576557674225,-0.338211835105164,-25.3316451469287,-41.8600209470296,-17.9781306156294,71.9079993487178,-3.32728766303853,3.40791541161981,3.09070768895518
1.99776055511309,-8.25918188263402,-15.7520523781345,-0.345915710423569,-25.1667795163819,-41.7072137077814,-17.8608126386402,71.6030919843262,-3.25873584030421,3.42274314306695,3.27720142175795
1.91234961438303,-8.23855524857322,-15.7470763108684,-0.351572653911768,-25.0049743652684,-41.5604155389818,-17.746227502467,71.3068175415437,-3.20421904444103,3.43341514094206,3.46112711747054
1.83099510632206,-8.21846816131466,-15.7426587418002,-0.35540306811401,-24.8464921649036,-41.4197295727316,-17.6342482079781,71.0193685528653,-3.16241248764492,3.43956041235232,3.64283285952082
1.75386271114833,-8.19869846012084,-15.7387404180458,-0.357630705238933,-24.6916004041082,-41.2852391722529,-17.5247533556589,70.7409166989775,-3.13200380568505,3.44093199296287,3.82257101163853
1.68102562329709,-8.17902782092417,-15.7352715395803,-0.358479979915318,-24.5405658222243,-41.1570057838083,-17.4176313558351,70.4716097758302,-3.11170563990181,3.43739361494488,4.00051678698121
1.61246909130647,-8.15924933356034,-15.732211460413,-0.358173557122511,-24.3936483858376,-41.0350670842761,-17.3127835209611,70.211568557972,-3.1002671031191,3.42890623729964,4.1767866261184
1.5480978929366,-8.13917434431999,-15.7295282371545,-0.356930236846578,-24.2510952200871,-40.9194354837811,-17.2101260728735,69.9608837078457,-3.09648404525883,3.41551473339994,4.35145579379768
1.48774646291355,-8.11863841066438,-15.7271980515207,-0.354963137231742,-24.1131346990567,-40.810097025134,-17.1095911589823,69.7196128788384,-3.09920801330918,3.39733499561857,4.52457466739818
1.43119118374256,-8.09750625184645,-15.7252045322263,-0.352478162200051,-23.9799708868172,-40.7070107027446,-17.0111270114512,69.487778150502,-3.10735377835428,3.37454168387092,4.69618326418541
1.3781641703703,-8.07567561562143,-15.7235380019376,-0.34967272896365,-23.8517785026178,-40.6101082051873,-16.9146974018349,69.2653639184988,-3.11990529023849,3.34735681132248,4.86632364507655
1.32836775882411,-8.05308001562869,-15.7221946761209,-0.346734724603005,-23.7286985630198,-40.5192940694723,-16.8202805435783,69.0523153429397,-3.13591992853409,3.31603932225445,5.03504993826658
1.28148886951912,-8.02969032599879,-15.7211758403845,-0.3438416564763,-23.6108348325047,-40.434446223305,-16.7278675824851,68.8485374397484,-3.15453095267991,3.28087577040798,5.20243583692494
1.23721246436251,-8.00551524990092,-15.7204870277234,-0.34115995660091,-23.4982511924619,-40.3554168859011,-16.6374607983101,68.653894880399,-3.17494811291076,3.24217215052643,5.36857952886015
1.19523344280492,-7.98060070794272,-15.720137205338,-0.338844395706745,-23.3909700142062,-40.2820337982634,-16.5490716247111,68.4682125431731,-3.19645645813567,3.20024687484211,5.53360610747804
1.15526650190743,-7.95502822039539,-15.7201379654609,-0.337037561198189,-23.2889715916316,-40.2141017574547,-16.4627185809725,68.2912768316939,-3.21841345535922,3.15542482608794,5.69766759550576
1.11705368914987,-7.9289123825924,-15.7205027025086,-0.335869357662278,-23.1921946518621,-40.151404431903,-16.3784251946397,68.1228377449049,-3.24024460767195,3.1080323658103,5.86094078912593
1.08036957507752,-7.90239755339813,-15.7212457558621,-0.335456499408045,-23.1005379198803,-40.0937064327604,-16.2962179778861,67.962611650802,-3.26143781916814,3.05839313884262,6.0236231996331
1.04502414390743,-7.87565389046908,-15.7223815051765,-0.335901979628811,-23.0138626701599,-40.0407556093902,-16.2161245031954,67.8102846879184,-3.28153680512649,3.00682450128887,6.18592742822126
1.01086363154632,-7.84887287231251,-15.7239234195152,-0.337294516970274,-22.9319961589434,-39.9922855281569,-16.1381716073031,67.6655166954196,-3.30013388634641,2.95363441539539,6.3480743503689
0.977769629179096,-7.82226244688093,-15.725883076063,-0.339707994859402,-22.8547357974197,-39.948018087242,-16.0623837375236,67.5279455552173,-3.31686253708744,2.89911869238274,6.51028550389519
0.945656820783795,-7.7960419417466,-15.7282691733759,-0.343200919165076,-22.7818539008508,-39.907666218689,-15.9887814449122,67.397191818507,-3.33139007088444,2.84355850647358,6.67277506896628
0.914469742567437,-7.77043686358771,-15.7310865672092,-0.347815923750466,-22.7131028337277,-39.8709366314028,-15.9173800275047,67.2728634850047,-3.34341083996776,2.78721813780437,6.83574180424938
0.884178950177113,-7.74567370586048,-15.7343353569573,-0.353579353726824,-22.6482203653136,-39.8375325530053,-15.8481883313968,67.1545608048283,-3.35264028835511,2.73034292916184,6.99936126674504
0.854776963008636,-7.72197487385661,-15.7380100515616,-0.360500958937141,-22.5869350491328,-39.8071564325048,-15.78120771967,67.041880978493,-3.35881013812702,2.6731574677361,7.16377859699688
0.826274328738123,-7.69955382640914,-15.7420988471797,-0.368573738356863,-22.5289714411264,-39.7795125685869,-15.7164312149311,66.9344226388734,-3.36166490917112,2.61586402933544,7.32910209879485
0.798696117018554,-7.67861052370918,-15.7465830538383,-0.377773985807068,-22.4740549761629,-39.7543096292177,-15.6538428133233,66.8317900108318,-3.36095988288487,2.55864134343062,7.49539778649817
0.772079108020192,-7.6593272613356,-15.7514367114696,-0.388061592241608,-22.4219163359184,-39.7312630274234,-15.5934169612483,66.7335966603839,-3.35646052869377,2.50164374800854,7.66268501857254
0.746469886012947,-7.64186496177285,-15.7566264332315,-0.399380655726984,-22.3722951667492,-39.7100971172079,-15.5351181846068,66.6394687653906,-3.34794332669871,2.44500080243313,7.83093328932302
0.721923976290971,-7.62635998598152,-15.7621115036608,-0.411660436087346,-22.3249430456157,-39.6905471746205,-15.4789008668131,66.5490478624918,-3.33519784636624,2.38881741547325,8.0000602182047
0.698506071252388,-7.61292151775393,-15.7678442429873,-0.424816669089733,-22.2796256432139,-39.6723611326596,-15.424709185184,66.4619930487849,-3.31802988367716,2.33317452794356,8.1699307577241
0.676291275335835,-7.60162956100094,-15.7737706322213,-0.438753230121189,-22.236124089385,-39.6553010442077,-15.3724772289724,66.3779826397716,-3.29626541862032,2.27813037066911,8.34035762907387
0.65536715805731,-7.59253357443685,-15.7798311811893,-0.453364115476878,-22.1942355972641,-39.6391442536275,-15.3221293281749,66.296715305739,-3.26975513012681,2.22372230109938,8.51110297990291
