Finger Velocity,Scap_X,Scap_Y,Scap_Z,Shoulder horiz abd-adduction,Shoulder flexion-extension,Shoulder internal-external rotation,elbow flexion-extension,forearm pronation-supination,wrist flexion-extension,wrist radial-ulnar deviation
0.805839779366794,-4.61702202552056,-14.4290744379499,5.21508589380454,-43.2793314996408,-40.0626865557045,-35.894108311579,88.0890309732228,-21.9531278919428,11.4218042195647,-31.1994813203183
1.04765961071699,-4.67457590786952,-14.3853271077811,5.18013936040084,-43.1927410209087,-39.9898445595697,-35.8127808479196,88.1222574718106,-21.847401819368,11.590783584289,-31.4456458560192
1.31408117307785,-4.73074525900761,-14.340209465069,5.14303920143868,-43.0931847137944,-39.9037213907984,-35.7242996235818,88.1519303763314,-21.7367240558834,11.7381924659306,-31.671537285755
1.60440759238055,-4.78476021479425,-14.2939317376625,5.10404000678437,-42.9790762509033,-39.8030136202892,-35.6276281930389,88.1763000119747,-21.6214151424397,11.8618878598915,-31.8740038664561
1.91783043899595,-4.83581197909946,-14.2467222135243,5.06340462999995,-42.8487881439933,-39.6864481827984,-35.5216513171124,88.19346948343,-21.501865524164,11.9600085650942,-32.0501136845819
2.25336257244466,-4.88306135569356,-14.1988230017351,5.02139782478312,-42.7006791305798,-39.5527988185252,-35.4052011648669,88.2014124632245,-21.3785375479363,12.030997808408,-32.1971946357238
2.60981433005109,-4.92564844383418,-14.1504852424349,4.97827992256263,-42.5331237962589,-39.4009019824293,-35.2770881418214,88.1979935191997,-21.2519662262749,12.0736182093035,-32.3128677796984
2.98578908628934,-4.96270335929033,-14.1019638104625,4.93430066757912,-42.3445434851911,-39.2296720867064,-35.1361353146578,88.180990517763,-21.1227585802477,12.08695942851,-32.3950739532985
3.3796892088191,-4.99335777980565,-14.053511578281,4.88969331967636,-42.1334374587356,-39.0381160077925,-34.9812151362094,88.1481185985413,-20.9915913822733,12.0704390452702,-32.4420937393456
3.78972853027261,-5.01675705894718,-14.0053733352075,4.84466913660992,-41.898413219477,-38.825346836767,-34.8112869718462,88.0970552078641,-20.8592071335316,12.0237973724872,-32.4525610718502
4.21394938336555,-5.03207261123228,-13.957779493678,4.79941234861315,-41.6382149296697,-38.5905968817099,-34.6254338113439,88.0254657116776,-20.7264081601698,11.9470870756866,-32.4254709337302
4.65024303704515,-5.03851424891531,-13.9109397391664,4.75407573053708,-41.3517489222578,-38.3332299458429,-34.4228965337182,87.9310291789126,-20.5940488176516,11.8406586053006,-32.3601817805914
5.09637271387732,-5.03534214741309,-13.8650367936306,4.70877686028438,-41.0381054269317,-38.0527529069989,-34.2031041761772,87.8114640158129,-20.4630259451443,11.7051425403572,-32.2564134650596
5.54999852439203,-5.02187812820182,-13.8202204662885,4.66359513140429,-40.6965758038478,-37.7488266091282,-33.9656988276313,87.6645532165519,-20.3342678785429,11.5414299240626,-32.1142414807222
6.00870372958251,-4.99751596990018,-13.7766021664083,4.61856956802163,-40.3266647798301,-37.4212760415721,-33.7105540029912,87.4881690572377,-20.208722476575,11.3506515239715,-31.9340882469825
6.47002178508196,-4.96173048664531,-13.7342500532259,4.57369747466675,-39.9280974023487,-37.0700997274359,-33.4377856396641,87.2802970905615,-20.0873447188686,11.1341566946316,-31.7167119228277
6.93146365129318,-4.91408514627549,-13.6931849958641,4.52893394301312,-39.5008206534022,-36.6954781752916,-33.147755175639,87.03905929604,-19.9710844843683,10.8934922227655,-31.4631929363424
7.39054488302743,-4.85423803883375,-13.6533775071004,4.48419223160951,-39.0449998871026,-36.297781178422,-32.8410645019692,86.7627362101233,-19.8608750947451,10.6303812671107,-31.1749181406423
7.84481204457654,-4.78194604849783,-13.6147457951548,4.43934503122927,-38.5610104599417,-35.8775736810007,-32.5185429165098,86.4497878102234,-19.7576230955516,10.3467023168559,-30.8535623295789
8.29186803329245,-4.6970671291863,-13.5771550446634,4.3942266235304,-38.0494251020121,-35.4356198774017,-32.1812265308242,86.0988728703938,-19.6621995553645,10.0444680033247,-30.5010668048578
8.72939593682838,-4.59956063493996,-13.5404179916525,4.34863593060798,-37.5109977232143,-34.9728851774392,-31.8303308908664,85.7088664581672,-19.5754329270485,9.72580360423489,-30.119614780712
9.15518109549061,-4.48948570812074,-13.504296803623,4.30234043717744,-36.9466444530458,-34.4905356635457,-31.4672178532605,85.2788752113929,-19.4981032910661,9.39292515468976,-29.7116036121444
9.5671310904849,-4.36699777691283,-13.4685062271561,4.25508094914578,-36.3574227702735,-33.9899346835693,-31.0933579969243,84.8082500238144,-19.4309376415869,9.0481171920631,-29.2796140875596
9.96329342983699,-4.23234325357548,-13.4327179345884,4.20657713704114,-35.7445095895485,-33.4726362564482,-30.7102900296859,84.2965957779685,-19.3746058152028,8.69371028595781,-28.826377283115
10.3418707550207,-4.08585255380179,-13.3965659944445,4.1565338023608,-35.1091791402431,-32.9403750123484,-30.3195787617084,83.7437777925792,-19.3297167058339,8.33205861438611,-28.3547396880216
10.7012334415477,-3.92793157764099,-13.3596534034967,4.1046477970808,-34.4527814036841,-32.3950524466076,-29.9227732567512,83.1499246983758,-19.2968145389145,7.96551791164313,-27.8676274400653
11.0399295148826,-3.75905181116,-13.3215596375788,4.05061551558958,-33.7767217742461,-31.838719345583,-29.5213667378434,82.5154275215985,-19.2763751546787,7.59642410701771,-27.3680105376726
11.3566918482432,-3.57973923422957,-13.2818491857167,3.99414085864087,-33.0824424860014,-31.2735543493877,-29.1167597202028,81.8409348396449,-19.2688024266547,7.22707290364838,-26.8588678271172
11.6504426506614,-3.39056225815145,-13.2400810156036,3.934943539574,-32.3714062112349,-30.7018387532649,-28.7102276788489,81.127343979286,-19.2744250733514,6.85970045467776,-26.3431534397209
11.9202952919597,-3.19211896569187,-13.1958188747845,3.87276756752699,-31.6450821001837,-30.1259278131884,-28.3028943410406,80.3757883528384,-19.2934941800984,6.49646522636249,-25.8237652227056
12.1655535462274,-2.98502397993441,-13.1486422627873,3.80738970499823,-30.9049343981004,-29.5482190083598,-27.8957114362267,79.5876211663115,-19.3261817261082,6.13943111602408,-25.3035155995189
12.3857083673668,-2.76989533970512,-13.0981578213073,3.73862766161843,-30.1524136485893,-28.9711179142833,-27.4894454499745,78.764395878556,-19.3725803167783,5.7905519049186,-24.7851052137413
12.58043233996,-2.54734179873941,-13.0440107980728,3.66634775769072,-29.3889503750618,-28.3970025322911,-27.0846716216479,77.9078439330709,-19.4327041718266,5.45165714892398,-24.2710996432987
12.7495719767503,-2.31795098303243,-12.9858961679553,3.59047177684408,-28.6159510310745,-27.828187073586,-26.6817751073066,77.0198504121869,-19.506491247839,5.1244396308698,-23.7639094095716
12.8931380611124,-2.08227882817879,-12.9235689608353,3.51098273124683,-27.8347959301445,-27.2668862850346,-26.2809589154603,76.1024283608399,-19.5938062218145,4.81044451565165,-23.2657734453237
13.0112942594923,-1.84084067409412,-12.8568533550083,3.427929283957,-27.0468388078509,-26.7151814239159,-25.8822579383218,75.157692577581,-19.6944439705354,4.51106036109597,-22.7787461218213
13.1043442551411,-1.59410432263718,-12.7856501413525,3.34142860653093,-26.2534076329887,-26.1749889438272,-25.4855581698523,74.1878336625406,-19.808133172675,4.22751213946243,-22.3046878634547
13.1727176803838,-1.34248527220058,-12.7099422365266,3.25166749092578,-25.4558062692437,-25.6480328517136,-25.090620037855,73.1950930429198,-19.9345397378986,3.96085641440129,-21.8452592944673
13.2169551495196,-1.0863442424295,-12.6297980105265,3.15890157786806,-24.6553165918541,-25.1358215494141,-24.6971046808301,72.1817395722334,-20.073269910309,3.71197879831048,-21.4019187686437
13.2376927171178,-0.825987004350937,-12.5453722809203,3.06345260532203,-23.8532006801465,-24.6396297994787,-24.3046019680045,71.1500481348456,-20.2238730675729,3.48159378861222,-20.9759230358629
13.2356461053737,-0.561666447233234,-12.4569049051605,2.96570362240741,-23.0507027327749,-24.1604862654506,-23.912659092039,70.1022805052452,-20.3858444024812,3.27024704995314,-20.5683307107574
13.2115950573326,-0.2935867456978,-12.3647169798593,2.86609216566933,-22.2490503893581,-23.6991668702493,-23.5208086535207,69.0406685367448,-20.5586277997789,3.07832017213854,-20.1800081396264
13.1663681779752,-0.0219094314044051,-12.2692047472668,2.7651014666118,-21.449455195336,-23.2561939877533,-23.1285952911829,67.967399605546,-20.7416192917519,2.90603788846895,-19.8116372166849
13.1008286201403,0.253238885711816,-12.1708314228586,2.66324985332659,-20.6531120188817,-22.8318412378731,-22.7356000751431,66.8846041238218,-20.9341714852911,2.75347768419656,-19.4637246782769
13.0158609550196,0.531757460239613,-12.0701172817002,2.56107861392503,-19.861197314227,-22.4261434183222,-22.3414620586196,65.794344864047,-21.1355993000838,2.62058166244352,-19.1366124041663
12.9123595359893,0.813561377895182,-11.9676284454266,2.4591386887292,-19.0748662129331,-22.0389109119193,-21.9458965683484,64.6986078069949,-21.3451872476029,2.50717046967918,-18.8304882813218
12.7912186190919,1.09857092775181,-11.8639648689282,2.35797663899501,-18.2952485028653,-21.6697477830449,-21.5487099996914,63.5992942358078,-21.5621983274551,2.41295901525816,-18.5453972358969
12.6533244438292,1.3867007568111,-11.7597480253333,2.25812039497156,-17.5234436190121,-21.3180727282892,-21.1498110598563,62.4982138433568,-21.7858844406568,2.33757364529209,-18.2812521034997
12.4995494054898,1.67784915526218,-11.6556087311536,2.16006530855734,-16.7605148180636,-20.9831420703404,-20.7492185550083,61.3970786900122,-22.0154980388979,2.28057034711925,-18.0378440741648
12.330748367664,1.97188777652325,-11.5521754514955,2.06426101992702,-16.0074827369534,-20.6640740694273,-20.3470659251267,60.2974979309059,-22.250304565984,2.24145347111071,-17.8148525109126
12.1477570746713,2.26865204795057,-11.4500633045217,1.97109959589995,-15.2653185463741,-20.3598739463215,-19.9436027834073,59.2009733131249,-22.4895951244077,2.21969437541913,-17.6118540029699
11.9513925330412,2.56793249029775,-11.3498638824804,1.88090532306119,-14.5349369128796,-20.0694591246947,-19.5391937199262,58.1088955136174,-22.7326987329634,2.21474934595099,-17.4283305833634
11.742455144258,2.86946714520487,-11.2521359514327,1.79392645446195,-13.8171889874031,-19.7916842757982,-19.1343145993907,57.0225414396996,-22.9789935351839,2.22607613464824,-17.2636771168464
11.5217322931717,3.17293530725481,-11.1573970835241,1.71032912142178,-13.1128556461287,-19.5253657803718,-18.729546538803,55.9430726406067,-23.2279163680505,2.2531485011938,-17.1172079417025
11.2900030329936,3.47795275898776,-11.0661162905625,1.63019353223349,-12.4226412162826,-19.2693052326156,-18.3255677078372,54.871534979704,-23.4789701976385,2.29546823478448,-16.9881629195079
11.0480434630728,3.78406870248661,-10.9787077419695,1.55351249151297,-11.7471679184274,-19.0223116214136,-17.9231430661647,53.8088596959618,-23.7317290634961,2.35257426427984,-16.8757131054101
10.7966323730025,4.09076456402218,-10.8955256557948,1.48019219728506,-11.0869712457628,-18.7832218410535,-17.5231121507115,52.7558659441148,-23.985840333603,2.42404861817627,-16.778966294332
10.5365567278901,4.39745481612348,-10.8168604461529,1.41005521472863,-10.4424964786926,-18.5509192076864,-17.1263750615942,51.7132648483973,-24.2410242384785,2.50951914518082,-16.6969727173993
10.2686165951106,4.70348991175539,-10.7429361859202,1.34284548358837,-9.81409649737216,-18.3243496968639,-16.7338768696578,50.681665038556,-24.4970708050128,2.60865903215152,-16.6287311475678
9.99362916117518,5.0081613579223,-10.6739093938688,1.27823518306627,-9.20203100516624,-18.1025356803605,-16.3465907683688,49.6615795650025,-24.7538344307725,2.72118325500619,-16.5731956230949
9.71243155560439,5.31070887684544,-10.6098690900812,1.21583324891736,-8.60646721524242,-17.8845870225913,-15.9655003932833,48.6534340186281,-25.0112264230218,2.84684217880989,-16.5292829244074
9.42588228270443,5.61032952344825,-10.5508380057948,1.1551953140556,-8.02748198859003,-17.6697094804889,-15.5915818094767,47.6575756147608,-25.2692058794267,2.98541259885765,-16.4958808614782
9.13486115670724,5.90618856076075,-10.4967748063959,1.09583483036739,-7.46506535472948,-17.4572104172034,-15.2257857107767,46.6742829452049,-25.527769315368,3.13668659714625,-16.4718573590473
8.84026773498974,6.19743184754413,-10.447577196743,1.03723512733248,-6.91912530568633,-17.2465018824202,-14.8690203866275,45.7037760640243,-25.786939445234,3.30045868249533,-16.4560702713358
8.54301834184859,6.48319946471081,-10.4030858168067,0.978862170182678,-6.38949373413256,-17.0371011374649,-14.5221359972321,44.7462265578408,-26.0467535005232,3.47651177948281,-16.4473778128692
8.2440418654261,6.76264029215656,-10.3630888825233,0.920177790698454,-5.87593338429093,-16.8286287274975,-14.1859106539784,43.8017672625673,-26.3072514214223,3.66460271593796,-16.4446494524021
7.94427458705593,7.03492723576378,-10.3273275583449,0.86065316913585,-5.37814568881462,-16.6208042435635,-13.861038725738,42.8705013245063,-26.5684642013443,3.86444791796454,-16.4467770828335
7.64465436036486,7.29927278872696,-10.2955020478016,0.799782340114459,-4.89577936648368,-16.4134399839332,-13.548121682725,41.9525103605942,-26.8304026069981,4.07571004717261,-16.452686256705
7.34611449267647,7.55494459125611,-10.2672783551592,0.737095477902783,-4.42843964933636,-16.2064328127113,-13.2476616561408,41.0478615434016,-27.0930464505219,4.29798630349837,-16.4613472698504
7.04957769051226,7.80128063124144,-10.2422956153402,0.672171690904499,-3.97569799161376,-15.9997546091047,-12.9600577459976,40.1566135111065,-27.3563345636927,4.53079906988423,-16.471785885646
6.75595041252738,8.03770370906185,-10.2201738243231,0.604651027462025,-3.53710208590445,-15.7934417852043,-12.6856049646826,39.2788210699405,-27.6201556215781,4.77358949453718,-16.4830935140746
6.46611792684105,8.26373477626142,-10.2005217428571,0.534245373948178,-3.11218597801625,-15.5875844067221,-12.4244955732376,38.4145387094394,-27.8843399824276,5.02571449413423,-16.4944366874811
6.18094029686414,8.47900475762154,-10.1829447112603,0.460747921095084,-2.70048004229475,-15.3823154618548,-12.1768224630601,37.5638229884308,-28.1486527432305,5.28644751891896,-16.5050657044588
5.9012494235403,8.68326448966159,-10.1670521207226,0.384040892487291,-2.30152056745579,-15.1778007735794,-11.9425841675252,36.7267338758599,-28.4127882408509,5.55498324723831,-16.5143223407041
5.62784715723064,8.87639246123967,-10.1524643374914,0.304101270300829,-1.91485871697586,-14.9742299452952,-11.7216910630125,35.9033351506666,-28.6763662383869,5.83044617237819,-16.5216465486984
5.36150436569225,9.05840011650394,-10.1388189455475,0.221004311377418,-1.54006866164978,-14.7718086005469,-11.5139723406648,35.0936939834623,-28.9389300090956,6.11190281729425,-16.5265820883125
5.10296071354715,9.22943456177831,-10.1257762306115,0.134924714409178,-1.17675472040262,-14.5707520603842,-11.3191833956712,34.297879840269,-29.1999464595726,6.39837707468197,-16.5287810459431
4.8529247823947,9.38977859419792,-10.113023863099,0.0461353723006678,-0.824557376698662,-14.3712805100774,-11.1370133756841,33.5159628607047,-29.458808329465,6.68886792605845,-16.5280072001129
4.61207404957504,9.53984803722989,-10.1002807595298,-0.0449962800697596,-0.483158058618547,-14.1736156320637,-10.9670927314287,32.7480118639889,-29.7148383899461,6.98236855873775,-16.5241381666432
4.38105415914907,9.68018642807611,-10.0873001249773,-0.138014236894617,-0.152282586022802,-13.977978611736,-10.809000700112,31.994092124401,-29.967295463162,7.27788571426108,-16.5171662059025
4.16047687416435,9.81145715686228,-10.0738717093606,-0.232382054249804,0.168296793374383,-13.7845893533521,-10.6622727153158,31.2542630370741,-30.2153820173887,7.5744580127846,-16.5071975062389
3.950916109992,9.93443320850709,-10.0598233415141,-0.327492924261996,0.478760830521005,-13.5936666827798,-10.5264077719323,30.5285757710125,-30.4582530635222,7.87117202788966,-16.4944496891077
3.75290153177821,10.0499847047973,-10.0450218246805,-0.422681417362579,0.779244180655091,-13.4054292743603,-10.4008757795788,29.8170709832978,-30.6950260841942,8.16717503132713,-16.4792472396573
3.56690937312663,10.1590644861057,-10.0293732791488,-0.51723657813828,1.0698377632385,-13.220097026185,-10.2851249139438,29.1197766489212,-30.924791757831,8.46168357148098,-16.4620145756091
3.39335041373486,10.2626920098266,-10.0128230073016,-0.610416031720845,1.3505925052546,-13.0378926160221,-10.1785889282163,28.4367060456702,-31.1466252834658,8.75398737258094,-16.4432665340955
3.23255544687412,10.361935876508,-9.99535494302112,-0.701460744209797,1.62152434814663,-12.859042989514,-10.0806943235504,27.7678559229721,-31.3595981547593,9.04344841533259,-16.4235961702415
3.08475905841341,10.4578953245698,-9.97699073727387,-0.789610083742058,1.88262035072677,-12.6837805568977,-9.99086720653963,27.1132048768352,-31.5627902637974,9.32949544172334,-16.403659904318
2.9500830781649,10.5516810593154,-9.95778852550478,-0.874116845376213,2.1338456763344,-12.5123439029419,-9.90853959470797,26.4727119502332,-31.755302233352,9.61161446990432,-16.3841602108654
2.82852155762719,10.6443958000358,-9.93784141823547,-0.954261926082039,2.37515121456131,-12.3449778480634,-9.83315488412764,25.8463154805187,-31.9362678830382,9.8893361736276,-16.3658262015501
2.71992943975193,10.7371149383107,-9.91727575126161,-1.02936835970309,2.60648155979195,-12.181932738299,-9.76417218193302,25.2339322222903,-32.1048667364195,10.1622211558019,-16.3493925955056
2.62401706398962,10.8308676993687,-9.89624912364216,-1.098814443066,2.82778305666026,-12.0234628891553,-9.70106923963632,24.6354567827261,-32.2603364772959,10.4298442201999,-16.3355776759494
2.54035217697114,10.9266191864057,-9.87494823941259,-1.16204570353324,3.03901163062881,-11.8698241628121,-9.64334380114595,24.0507614139737,-32.4019852620078,10.6917787290928,-16.3250608981788
2.46837017948227,11.0252536669377,-9.85358655503196,-1.21858547665623,3.24014014913113,-11.721270716194,-9.59051329556909,23.4796962132625,-32.5292037816298,10.9475820521354,-16.3184608548538
2.40739206513762,11.1275594334007,-9.83240172475505,-1.26804388185315,3.43116509890645,-11.5780510121123,-9.54211294720684,22.922089786491,-32.6414769342408,11.1967829768692,-16.3163143167263
2.35664816836875,11.2342155392985,-9.81165283589265,-1.31012500591072,3.61211241080619,-11.4404032291052,-9.49769252682016,22.3777504334019,-32.7383949110205,11.4388717611111,-16.3190570318155
2.31530477991103,11.3457806772449,-9.79161743580393,-1.34463213046989,3.78304230950529,-11.3085502328766,-9.45681210977781,21.8464679079574,-32.819663426475,11.6732932768526,-16.3270068872221
2.28249019742949,11.4626844248522,-9.7725883677317,-1.37147087194596,3.94405311028589,-11.1826942835232,-9.41903732051034,21.3280157937253,-32.8851127419942,11.8994434646587,-16.3403499449959
2.25731699001697,11.5852210374887,-9.75487044695401,-1.39065014064157,4.09528392713535,-11.0630116527688,-9.38393461630291,20.8221545126348,-32.9347050572252,12.1166691156131,-16.3591297714485
2.23889809970915,11.7135459133237,-9.73877701729871,-1.40228086965937,4.2369162939022,-10.9496473210416,-9.351067188401,20.3286349598147,-32.9685397977649,12.3242708285236,-16.3832403788802
2.22635564896029,11.8476747969702,-9.72462642970846,-1.40657251355918,4.3691747306719,-10.8427099195513,-9.31999202914265,19.8472027287008,-32.9868563347494,12.5215088584721,-16.4124229852103
2.21882266572176,11.9874857262805,-9.71273848402241,-1.40382737127427,4.4923263082003,-10.7422670746357,-9.29025863069922,19.3776028585549,-32.990033743608,12.7076114828433,-16.4462666715364
2.21543909714576,12.1327236653384,-9.70343087938423,-1.39443284692845,4.60667927381444,-10.6483412946495,-9.2614096525578,18.9195850018309,-32.9785873369258,12.8817854431165,-16.4842128736164
