Finger Velocity,Scap_X,Scap_Y,Scap_Z,Shoulder horiz abd-adduction,Shoulder flexion-extension,Shoulder internal-external rotation,elbow flexion-extension,forearm pronation-supination,wrist flexion-extension,wrist radial-ulnar deviation
0.846166750658535,-8.37613850259867,-12.1720830532213,5.92800018377369,-31.77762411779,-42.640429386569,-22.5294242912474,78.2955523010737,-26.2778002901699,19.3808957490899,-27.8548862891971
0.942964180310323,-8.41128089039601,-12.1337036291687,5.89645365929841,-31.9660735353544,-42.5231775437093,-22.5205225405423,78.2989027206485,-25.2842575513548,19.2563788118633,-27.4040561339718
1.35017792068848,-8.45143884058156,-12.0905830488924,5.85887960411508,-32.1614701510735,-42.3873227321495,-22.5204453497141,78.3243979434629,-24.1993907270369,19.1416072279233,-26.9288690541061
1.95791123738672,-8.49697478715686,-12.0421954703762,5.81453615446615,-32.3613488051824,-42.2310036818907,-22.5294444910535,78.3747735801335,-23.0244375040636,19.0351147878865,-26.4300806090959
2.69773929492102,-8.54821807506903,-11.9879950853259,5.76267465715837,-32.5628941095857,-42.052354690624,-22.5475113820467,78.4527908471545,-21.7617496056781,18.9347533636332,-25.9085896586706
3.54220982660841,-8.60545565463286,-11.9274194731143,5.70255026942797,-32.7629713455193,-41.849532595705,-22.5743525064894,78.5612374661038,-20.4147946250252,18.8378040169781,-25.3655508500526
4.47845595635336,-8.66892275913831,-11.8598935657995,5.6334333143749,-32.9581693602716,-41.6207440318336,-22.6093727782048,78.7029285474499,-18.9881260476181,18.7411233643996,-24.8024856154492
5.498322120613,-8.73879385017162,-11.7848342331489,5.55462113775782,-33.1448549335158,-41.3642719060202,-22.6516679534801,78.8807043844532,-17.487320526334,18.641313070632,-24.2213721036111
6.59501024737359,-8.81517414347046,-11.7016554621594,5.46545016047337,-33.3192374722898,-41.0785000511216,-22.7000267253812,79.0974219280742,-15.9188838670069,18.5348984671397,-23.6246947030238
7.76183286324632,-8.89809203727641,-11.6097740702636,5.36530778518986,-33.4774422944248,-40.76193513352,-22.7529426236575,79.3559369619509,-14.2901297158782,18.4185024754209,-23.0154376374521
8.99171476053508,-8.98749275241853,-11.5086158547879,5.25364379903415,-33.6155902195093,-40.4132250847196,-22.8086353457755,79.6590746345188,-12.6090372362327,18.2890032418635,-22.397014335875
10.2769976054151,-9.08323345729132,-11.3976220443609,5.12998091515986,-33.7298807531643,-40.031173585528,-22.8650807014546,80.0095869626605,-10.8840957522001,18.1436676455199,-21.7731337947714
11.6093840346272,-9.18508009097322,-11.2762558870607,4.99392411160036,-33.8166758677311,-39.6147504277738,-22.9200479959335,80.4100970857913,-9.12414515688251,17.9802572380651,-21.1476151025794
12.9799543440505,-9.29270601716084,-11.1440091939316,4.84516845507753,-33.8725812806502,-39.163097877804,-22.9711434191717,80.8630312850683,-7.33822072099147,17.7971071989357,-20.5241695123356
14.3792253472821,-9.40569255114605,-11.0004086587548,4.68350514107714,-33.8945222232801,-38.6755334376306,-23.0158578504258,81.3705409423584,-5.5354098405584,17.5931816760285,-19.9061740657614
15.7972359711052,-9.52353131979383,-10.8450217889944,4.50882553930263,-33.879810966573,-38.1515496241906,-23.0516174319997,81.9344175609964,-3.724726396842,17.3681100043605,-19.2964608437222
17.223650753465,-9.64562835559078,-10.6774622993191,4.32112310536293,-33.8262037929846,-37.5908115479942,-23.0758353181428,82.5560046146483,-1.91500604457866,17.1222078994108,-18.6971417546024
18.6478754835519,-9.77130979053502,-10.4973948407406,4.12049310991701,-33.731945637347,-36.9931531441224,-23.0859631537082,83.236110312927,-0.114823244931528,16.8564863995678,-18.1094817880337
20.0591807299123,-9.89982899225775,-10.3045389796792,3.90713025122241,-33.5958012282116,-36.3585728695567,-23.0795410369486,83.974925418526,1.66757143832225,16.5726497520222,-17.5338257625015
21.4468297846842,-10.0303749637726,-10.0986724094402,3.68132434817081,-33.4170722073732,-35.6872295347719,-23.0542449246213,84.7719500988742,3.42429709427803,16.2730820578887,-16.9695765070955
22.8002079958251,-10.162081807345,-9.8796334588539,3.44345443152486,-33.1956003439623,-34.9794387163549,-23.0079306325073,85.6259335263959,5.14787579259711,15.9608215670869,-16.4152173198015
24.108950749841,-10.2940390339917,-9.64732303278119,3.19398163028775,-32.9317575492176,-34.2356699550524,-22.9386737645829,86.534829617933,6.83125848710832,15.6395211904347,-15.8683689721651
25.3630675973228,-10.425302487858,-9.40170615391961,2.9334412722067,-32.6264239103085,-33.4565447369645,-22.8448050416845,87.4957719479105,8.46784824196869,15.3133941159532,-15.3258713770707
26.5530602292865,-10.5549056542944,-9.14281327061332,2.66243458666272,-32.2809553783082,-32.6428351098409,-22.7249405796775,88.5050704481183,10.0515246318096,14.9871442729419,-14.783881685062
27.6700322370904,-10.6818711321837,-8.87074146570598,2.38162033085307,-31.8971430530224,-31.7954626868642,-22.5780067107455,89.558231947436,11.5766718428682,14.665882551995,-14.2379831513741
28.7057888329594,-10.8052220709097,-8.58565566329972,2.09170657567555,-31.4771661952633,-30.9154977170085,-22.4032589875435,90.6500058337091,13.038211489212,14.3550308695119,-13.6833017551177
29.6529249749024,-10.9239933961129,-8.28778988966021,1.79344280402119,-31.0235411580168,-30.0041578549689,-22.2002950851679,91.774455091728,14.4316396713645,14.060217102697,-13.11462959837
30.5049006276759,-11.0372426727221,-7.97744860383122,1.48761240301867,-30.5390683602154,-29.0628062548933,-21.9690614270563,92.9250516918664,15.7530665207897,13.7871644851451,-12.5265552286288
31.2561021962835,-11.1440604762273,-7.65500807957267,1.17502557577948,-30.0267792413314,-28.0929486408602,-21.7098534973454,94.0947938516298,16.9992555323454,13.5415792415235,-11.9136011714839
31.9018894844305,-11.2435801646506,-7.32091779724257,0.856512654371455,-29.4898848585438,-27.096229063826,-21.4233099493572,95.2763412161464,18.1676594778307,13.329040105898,-11.2703682776573
32.4386278504573,-11.3349869685048,-6.97570178287779,0.532917761383049,-28.9317274570449,-26.0744241336348,-21.1104007728373,96.4621626913292,19.2564496401616,13.1548929872216,-10.5916852156968
32.8637055500846,-11.417526346338,-6.61995979345407,0.20509274270784,-28.3557359924343,-25.0294356182718,-20.772409943923,97.6446906961033,20.2645354602587,13.0241535307535,-9.87275984620977
33.1755365611716,-11.490511584809,-6.25436818306801,-0.126108717806832,-27.7653862373544,-23.963281430988,-20.4109131501135,98.8164751131102,21.1915723405985,12.9414198048674,-9.10932756059263
33.3735494731408,-11.5533306466984,-5.8796802055937,-0.459836888093195,-27.1641657778011,-22.8780851655446,-20.0277513450121,99.9703302766412,22.037956167311,12.9107968894096,-8.29779021253341
33.4581632857282,-11.6054522822197,-5.49672543879514,-0.795251755128018,-26.555543906083,-21.7760644665367,-19.6250010216108,101.099468931479,22.8048039706808,12.935834738156,-7.43533827432144
33.4307511919227,-11.6464314168265,-5.10640797703909,-1.13152883016451,-25.9429461545061,-20.6595186089581,-19.2049421734488,102.197618144451,23.4939209439038,13.0194802882986,-6.52004857123576
33.2935936129563,-11.6759138148461,-4.70970304834122,-1.46786504142547,-25.3297329997615,-19.5308156865428,-18.7700249273517,103.259113512849,24.1077547176,13.1640443832025,-5.55095060016673
33.0498219046871,-11.693640000358,-4.30765175892757,-1.80348474214768,-24.7191821186163,-18.3923797676664,-18.3228357888457,104.278969520744,24.6493383096461,13.3711836982533,-4.52805610793582
32.7033542616611,-11.6994484051651,-3.90135373053639,-2.1376458195691,-24.114473496666,-17.2466782925288,-17.8660643610077,105.252925377704,25.1222235293592,13.6418975668253,-3.45234914416073
32.2588254059522,-11.6932777144576,-3.49195745468511,-2.46964583464007,-23.5186766757265,-16.0962098876423,-17.4024712874276,106.177466998446,25.5304068243485,13.9765394018008,-2.32573682202262
31.7215116624751,-11.6751683911413,-3.08064824811342,-2.79882807075736,-22.9347394624575,-14.9434926810763,-16.9348580236264,107.049826859863,25.8782496427417,14.3748422262115,-1.15096402760918
31.0972529923377,-11.6452633711878,-2.66863377120414,-3.12458733458096,-22.3654775091209,-13.7910531147602,-16.4660388521429,107.867964266481,26.1703953787345,14.8359575588624,0.0685020892813328
30.3923734839963,-11.603807926166,-2.25712717940395,-3.44637533142008,-21.8135643167698,-12.6414151632145,-15.9988153330632,108.630529065718,26.4116849156514,15.3585064810881,1.32861008005504
29.6136016930836,-11.5511486803452,-1.84732811959967,-3.76370542323522,-21.2815213923428,-11.4970897804794,-15.5359531522775,109.336812102731,26.6070727042367,15.9406411387654,2.62487570406452
28.767992081771,-11.4877317471534,-1.44040195418517,-4.0761565662887,-20.7717084939686,-10.3605643152199,-15.0801611287165,109.986685731821,26.7615452127659,16.5801142475372,3.95253769199129
27.8628486446182,-11.414099916974,-1.03745778343223,-4.38337622492501,-20.2863140969113,-9.23429157041143,-14.6340719903729,110.580537561404,26.8800434389531,17.2743534200009,5.30670877601479
26.9056516282596,-11.3308887987641,-0.639526017650015,-4.68508207507827,-19.8273463750836,-8.12067815601802,-14.2002244350358,111.119200356797,26.967390964965,18.0205364125557,6.68251379450153
25.9039880658857,-11.2388218120645,-0.247536385084619,-4.98106234518617,-19.3966250882639,-7.02207181189301,-13.7810459648303,111.603880702292,27.0282287654851,18.815662870307,8.07520786184261
24.8654866635655,-11.1387039521097,0.137702689517112,-5.27117468750046,-18.9957747773829,-5.94074747785116,-13.3788360344496,112.036088659077,27.0669576550261,19.6566180506921,9.48026912092503
23.7977574032514,-11.0314142961485,0.515522448663534,-5.5553435240722,-18.6262196108355,-4.87889204696815,-12.9957491779564,112.417570268629,27.0876889011058,20.5402244835433,10.8934624454131
22.7083360756025,-10.9178972696045,0.885409140708979,-5.8335558662266,-18.2891801120134,-3.83858791978146,-12.6337779567414,112.750244361347,27.0942031572748,21.4632785864844,12.3108725712647
21.6046338324093,-10.7991527498664,1.24701571816456,-6.10585566351028,-17.9856718340896,-2.82179564409768,-12.2947357754035,113.03614475393,27.089917512646,22.4225707758633,13.7289073939709
20.4938917598869,-10.676225160257,1.60016944237262,-6.37233679559854,-17.7165058417711,-1.83033605374715,-11.9802398177607,113.277368569818,27.0778601571305,23.4148893754515,15.1442743989062
19.383140424863,-10.5501917834894,1.94487510710057,-6.63313487260593,-17.4822906678009,-0.865872390870103,-11.6916945273374,113.47603111023,27.0606519908371,24.4370103523264,16.5539351832996
18.2791643376694,-10.4221505759642,2.28131376157994,-6.88841805192405,-17.2834353120178,0.0701070971403157,-11.4302761567255,113.634227455247,27.0404945063822,25.4856763477545,17.9550445576252
17.1884713063032,-10.2932077805295,2.60983697884177,-7.13837711519115,-17.1201528693096,0.976305630289216,-11.1969189217706,113.75400078873,27.0191634120744,26.557569464292,19.3448816051685
16.1172667187886,-10.1644656274367,2.93095687436538,-7.38321507858047,-16.9924644738824,1.85163302130504,-10.9923032329223,113.837317304576,26.9980076584794,27.6492827433091,20.720780230521
15.0714328695657,-10.0370103941863,3.2453322310673,-7.6231366297657,-16.9002033879692,2.69521905668016,-10.8168463604566,113.886047447548,26.9779537157456,28.757295159828,22.0800661173764
14.0565135146684,-9.9119010660435,3.55375122609037,-7.85833769466437,-16.8430192237858,3.50642473675653,-10.6706957418584,113.901953158702,26.9595150994286,29.8779542419555,23.420005708897
13.0777038561182,-9.79015879853425,3.85711137398168,-8.08899544224595,-16.8203824547161,4.28485096800752,-10.5537249765966,113.886680727747,26.942807246657,31.0074691671132,24.7377709933041
12.139846050822,-9.67275733474387,4.15639738399021,-8.3152590398458,-16.8315895203069,5.03034429374528,-10.4655324054026,113.841758798375,26.927567878037,32.1419156118037,26.0304217874025
11.247430013003,-9.56061448141336,4.45265766232826,-8.53724146660704,-16.8757689230006,5.74299926007568,-10.4054420886782,113.768601018559,26.9131829041455,33.2772520287141,27.2949051596063
10.4045985922415,-9.45458470776344,4.74698017386938,-8.75501266474443,-16.9518887245122,6.42315705597823,-10.3725070319101,113.668512762933,26.8987177261029,34.4093456725164,28.5280698913648
9.61515498740151,-9.35545290622395,5.04046832557909,-8.9685942496506,-17.0587657879238,7.07140015813018,-10.3655146581476,113.542701272193,26.8829534723572,35.5340057850242,29.7266926366072
8.88256832648166,-9.26392934376064,5.33421745829024,-9.17795591677651,-17.1950770226397,7.68854286482896,-10.3829947444751,113.392288464931,26.8644273827767,36.6470209585615,30.8875117924583
8.20997063123417,-9.18064582848113,5.62929243963269,-9.3830135936698,-17.359372801982,8.27561780220679,-10.4232302458833,113.218325599684,26.8414762508062,37.7441978060273,32.0072650224072
7.60013513453518,-9.10615311008124,5.92670674608017,-9.58362930725851,-17.5500926298009,8.83385868401442,-10.4842715627252,113.021808917476,26.8122815921637,38.8213985957042,33.0827267803286
7.05542303518442,-9.04091951936118,6.22740332087539,-9.779612675752,-17.7655830178703,9.3646797601847,-10.5639548330541,112.803695387927,26.7749150645914,39.8745763138748,34.1107429256911
6.57768523355689,-8.98533083034753,6.53223741393777,-9.97072388793075,-18.0041174005851,9.86965248421139,-10.6599247556684,112.564917720367,26.727382668589,40.8998064885284,35.088260410739
6.16811050485334,-8.93969129970693,6.84196155814969,-10.1566779961474,-18.2639177690875,10.3504799757778,-10.7696623072726,112.306397896733,26.6676664253466,41.8933158252203,36.0123508775037
5.82702514824779,-8.90422580383282,7.15721280664647,-10.3371503218676,-18.5431775670767,10.8089698733324,-10.8905175337297,112.029058647841,26.5937625069362,42.8515081517297,36.8802277326521
5.55367181982857,-8.87908295673718,7.4785023304915,-10.5117827534398,-18.8400852691028,11.2470061803454,-11.0197473767213,111.733832515692,26.5037151168242,43.770988366193,37.6892568867643
5.34602063939506,-8.86433905778569,7.80620744314011,-10.6801907051919,-19.1528479706121,11.6665207191137,-11.1545582412343,111.421668381741,26.3956457427327,44.6485851324493,38.4369619007434
5.20067939248193,-8.86000269730195,8.14056608024404,-10.841970506913,-19.4797142622661,12.0694648133841,-11.2921527172349,111.093535562146,26.2677777173531,45.4813730341403,39.1210247839165
5.11295627820488,-8.86601984830225,8.48167373212905,-10.996707005634,-19.8189956392436,12.4577818113261,-11.4297795481534,110.750425767513,26.1184563285996,46.2666947952361,39.739284105201
5.07708558975476,-8.88227929455894,8.82948280881321,-11.1439811886148,-20.1690857110544,12.8333810209628,-11.5647856074202,110.39335339606,25.9461650196944,47.0021839961709,40.2897323843944
5.08657252306529,-8.90861828143176,9.18380441179558,-11.2833776752707,-20.5284765326195,13.198113559655,-11.6946683355671,110.023354767209,25.749538492302,47.6857884878093,40.7705149307333
5.13457734005763,-8.94482831552488,9.54431248595284,-11.4144919664231,-20.895771472781,13.5537505258838,-11.8171268498879,109.641486992368,25.5273737328979,48.3157944804095,41.1799324134835
5.21425896845173,-8.99066107209653,9.91055031948618,-11.5369373670525,-21.2696941658796,13.9019637971152,-11.930109809006,109.248827205715,25.2786400724828,48.8908510831554,41.5164494641023
5.31902758666484,-9.04583438876299,10.2819393392854,-11.650351506136,-21.6490932483696,14.244309652547,-12.0318581170847,108.846472830003,25.0024893191002,49.409994844359,41.7787114142842
5.44269387116758,-9.110038328295,10.6577901048371,-11.754402370023,-22.0329427601762,14.582215320604,-12.1209406805358,108.435543430289,24.6982667488761,49.8726735320461,41.9655707629262
5.57953114322075,-9.18294128367464,11.0373153354241,-11.8487937559309,-22.4203382833026,14.9169684602974,-12.196281661135,108.017184525816,24.3655233142016,50.2787680058608,42.0761241595301
5.72427919177957,-9.26419608014383,11.4196447239899,-11.9332700476857,-22.8104890872754,15.2497095030797,-12.2571779797066,107.59257351656,24.0040288827088,50.6286105969501,42.1097596765582
5.87211818365372,-9.35344600975909,11.8038412162679,-12.0076202196612,-23.2027067367265,15.5814267075887,-12.3033061946055,107.162927670275,23.6137857569886,50.922997905485,42.0662129039736
6.01863414378904,-9.4503307202505,12.1889183810711,-12.071680987062,-23.5963907741656,15.9129537150202,-12.3347182887349,106.729513926637,23.1950412437287,51.1631953279505,41.9456288877272
6.15978917914803,-9.55449187283692,12.5738584679135,-12.1253390396309,-23.9910122058487,16.2449693403028,-12.3518263243753,106.293660106521,22.7482976844797,51.3509300850469,41.7486253083461
6.29190268812228,-9.66557848261508,12.9576307353536,-12.1685323193266,-24.3860955759383,16.5779992928368,-12.355376345897,105.856766965617,22.2743181044532,51.488369332464,41.4763509483521
6.41164508557288,-9.78325186195582,13.3392096385578,-12.2012503295142,-24.7812004037032,16.9124194842134,-12.3464123104138,105.420320417528,21.7741254627164,51.5780803503913,41.1305328128823
6.51604290247111,-9.90719010322466,13.7175924932718,-12.223533492782,-25.1759026851064,17.248460546966,-12.3262311917414,104.98590319673,21.2489934492577,51.622970881405,40.7135054308858
6.6024929562527,-10.0370920600702,14.0918162839728,-12.2354716036748,-25.5697770444327,17.5862131684559,-12.296330723945,104.555205256084,20.7004269640233,51.6262093127482,40.2282168751578
6.66878309559971,-10.1726808123553,14.4609733439859,-12.2372014476494,-25.9623799885941,17.9256338549118,-12.258351522606,104.130032300859,20.1301308846665,51.5911264029783,39.6782078036851
6.71311738554313,-10.3137066229912,14.8242256877045,-12.2289036762318,-26.3532345873326,18.2665507946515,-12.2140155364205,103.712312033719,19.5399664630633,51.5211024460902,39.0675621863049
6.73414423671775,-10.4599494097463,15.1808178069057,-12.2107990408306,-26.7418167927236,18.6086695872542,-12.1650629212658,103.304097888057,18.9318956090474,51.4194459280086,38.4008311041439
6.73098672681623,-10.6112207592764,15.5300877537464,-12.1831440961807,-27.127543530933,18.9515787355439,-12.113189476595,102.907570222852,18.3079143267292,51.2892715576856,37.6829337556465
6.70327511554809,-10.7673655059654,15.8714763328257,-12.1462264909939,-27.5097626498837,19.2947549404939,-12.0599867389652,102.525035110648,17.6699775671528,51.133386670243,36.9190421544018
6.65118225707153,-10.9282628874749,16.2045342256138,-12.1003599667851,-27.887744784164,19.6375683766102,-12.0068867057194,102.158920949956,17.0199186565605,50.9541950646508,36.1144575636869
6.57546321249914,-11.0938272758444,16.5289268813113,-12.0458791843097,-28.2606771953945,19.9792882402618,-11.9551129854314,101.811773164007,16.3593671662646,50.753626208584,35.2744872323774
6.47750078005845,-11.2640084729334,16.8444370370617,-11.9831344937419,-28.6276596536261,20.3190889395462,-11.9056399620823,101.486247209874,15.6896695359839,50.5330955455918,34.4043294522024
6.35935874589055,-11.4387915548791,17.1509647818969,-11.9124867652315,-28.9877024403844,20.656057324358,-11.8591613408254,101.185100020853,15.0118168943616,50.2934987253636,33.5089735242027
6.22384414728192,-11.6181962492561,17.4485251470385,-11.8343024016188,-29.339726581496,20.989201351245,-11.816069243148,100.911179851282,14.3263843221297,50.0352393960532,32.5931191970006
6.07457827224474,-11.8022758268909,17.7372432780887,-11.748948659746,-29.6825664552486,21.3174605570301,-11.7764448495907,100.667414309886,13.6334853103087,49.7582871905604,31.6611178577813
5.91607276768583,-11.9911154884011,18.0173473130929,-11.6567894055467,-30.0149749496295,21.6397186789753,-11.7400613953003,100.456796188714,12.9327444553395,49.4622600879939,30.7169355523951
5.75380108705793,-12.1848302256414,18.2891591505968,-11.558181419705,-30.3356313478308,21.954818695279,-11.7063999909786,100.282366555594,12.2232906049297,49.1465237175307,29.7641360738702
