Finger Velocity,Scap_X,Scap_Y,Scap_Z,Shoulder horiz abd-adduction,Shoulder flexion-extension,Shoulder internal-external rotation,elbow flexion-extension,forearm pronation-supination,wrist flexion-extension,wrist radial-ulnar deviation
0.194549931793949,-9.55505146738122,-13.4393923863703,6.75616960215489,-27.7997628780669,-42.592262647469,-28.3145951661803,74.4940359758446,-40.0672106635982,18.4770812822864,-18.52377121545
0.423737264061855,-9.58590444037281,-13.4119751099298,6.72884830877502,-27.8177759625832,-42.5403178226098,-28.2972858363271,74.4872829683757,-39.9667857534887,18.4073934304522,-18.581513581579
0.721976715788826,-9.61552669382765,-13.3805431313866,6.69724898117417,-27.8252958837969,-42.4704209692143,-28.2690429806675,74.4550432792423,-39.8504780993333,18.3279306901977,-18.6386280812709
1.06408663200599,-9.64277469113062,-13.3449963923279,6.66123058977821,-27.8200041195582,-42.3802754997046,-28.2279644070964,74.3929855260424,-39.7185233911068,18.2384283932769,-18.693551709378
1.44529314161505,-9.66637353427832,-13.3052875271698,6.62071818892026,-27.7995987049274,-42.2675904659992,-28.1721422598074,74.2966755752244,-39.5714160115053,18.1386223806607,-18.7445381793769
1.86336497793838,-9.68492632330666,-13.2614264794957,6.57571172273819,-27.7618565903649,-42.1301090111436,-28.099712387329,74.1616375139577,-39.4099189274286,18.0282482011191,-18.7896768792152
2.31635157633535,-9.6969267850849,-13.2134840932771,6.52629336774547,-27.7046987624134,-41.9656367280742,-28.0089079206723,73.983417303673,-39.2350675404811,17.9070402737078,-18.8269161991854
2.80208835225674,-9.70077506660189,-13.1615945327946,6.4726331058507,-27.6262558130617,-41.7720696910407,-27.898115414756,73.757647804176,-39.0481669853526,17.7747310749651,-18.8540908996966
3.31805503633572,-9.69479649718683,-13.1059564168876,6.41499227382646,-27.5249313713627,-41.5474220900993,-27.7659315636181,73.4801138904117,-38.850782548874,17.6310504743926,-18.8689531329646
3.86133651467573,-9.67726304744723,-13.0468325866289,6.35372489995802,-27.3994606552751,-41.2898535503202,-27.6112182431573,73.1468164504945,-38.6447230595724,17.4757253783494,-18.8692066809513
4.4286235279173,-9.64641715366498,-12.9845484577142,6.28927670936713,-27.2489613825612,-40.997696322315,-27.4331534855932,72.754034135671,-38.4320172545571,17.3084798243154,-18.8525439011746
5.01623344288143,-9.60049753121634,-12.9194889368187,6.2221817525866,-27.0729744194097,-40.6694825562969,-27.231275963859,72.2983818313762,-38.2148832725836,17.1290356051642,-18.8166847769207
5.62014353199367,-9.53776656188124,-12.852093903155,6.15305668582464,-26.8714918604036,-40.3039717976081,-27.0055206700323,71.7768649577564,-37.9956915830539,16.9371134443795,-18.7594173620993
6.23603324401705,-9.45653880170565,-12.7828522742134,6.08259280547433,-26.6449707230398,-39.9001786678489,-26.7562437108602,71.1869289071945,-37.7769218769821,16.7324347345235,-18.678638812793
6.85933342458114,-9.35521011623931,-12.7122946936621,6.01154601356558,-26.3943310874571,-39.4574004428281,-26.4842345150997,70.5265031565109,-37.5611147071021,16.5147238984179,-18.5723961157689
7.48528100644707,-9.23228690945354,-12.6409849049967,5.940724963811,-26.1209382854064,-38.9752439423695,-26.1907142477596,69.7940397778138,-37.3508189189644,16.2837115112983,-18.4389255563626
8.108977899701,-9.08641487362144,-12.5695099091063,5.87097770608035,-25.8265695912141,-38.4536508543669,-25.8773198384388,68.9885461585771,-37.1485361311533,16.0391384252152,-18.2766899240485
8.72545288328206,-8.91640665242646,-12.4984690483848,5.80317720473498,-25.5133667239566,-37.8929203743685,-25.5460737211327,68.1096117379477,-36.9566637005099,15.7807612758593,-18.0844124707001
9.32972531898498,-8.72126778233569,-12.428462215812,5.73820614672536,-25.183776260031,-37.2937278873552,-25.1993401034788,67.1574285183106,-36.7774377458662,15.5083599116137,-17.86110675086
9.91686951624641,-8.50022026376617,-12.3600774540596,5.67694147286328,-24.8404807101646,-36.6571383660644,-24.8397692765966,66.1328050524156,-36.6128779032161,15.2217474068008,-17.6061016774389
10.4820785888874,-8.25272312055358,-12.2938782814171,5.62023905701411,-24.486323480529,-35.9846132133451,-24.4702320828511,65.0371735496558,-36.4647355672806,14.9207833341607,-17.3190613653871
11.020726672277,-7.97848933847681,-12.230391148629,5.56891892527064,-24.1242311797954,-35.2780094326509,-24.0937471315305,63.8725896973587,-36.3344474513432,14.6053908198779,-16.9999995516293
11.5284284150354,-7.67749863251297,-12.1700934840231,5.5237513584704,-23.757136742923,-34.5395702636904,-23.7134036683572,62.6417247657538,-36.2230963465565,14.2755775665434,-16.6492885401709
12.0010947246838,-7.35000557766467,-12.1134028149098,5.4854441662369,-23.3879066332761,-33.7719067555074,-23.3322831606238,61.3478495764967,-36.1313809367138,13.9314605295486,-16.2676627135388
12.434983831212,-6.99654274944752,-12.0606674519253,5.45463136528586,-23.0192749868128,-32.9779701485077,-22.9533826617861,59.994809981822,-36.0595963753178,13.5732933425214,-15.8562166729041
12.8267468349401,-6.61791865653189,-12.0121591812654,5.43186344189545,-22.6537870070869,-32.1610153791895,-22.579542877038,58.5869936321246,-36.0076270225621,13.2014950180888,-15.4163980406917
13.1734670230866,-6.21521040473442,-11.9680683252777,5.4175993304661,-22.293753245759,-31.3245564785565,-22.2133835772032,57.1292880016649,-35.9749522591044,12.8166780199654,-14.9499949260273
13.4726923703706,-5.78975119877612,-11.9285014136413,5.41220019928235,-21.9412156686819,-30.4723150678584,-21.8572486171475,55.6270298919973,-35.9606656585504,12.4196735937223,-14.4591180539745
13.7224607796225,-5.34311295384199,-11.893481573426,5.41592510173676,-21.5979256868372,-29.6081635184587,-21.5131623235569,54.0859469383551,-35.9635070546841,12.0115522794003,-13.9461776094053
13.9213177653603,-4.87708444178301,-11.8629516131456,5.42892852498025,-21.265333689822,-28.7360646028311,-21.1827984487566,52.5120919926593,-35.981906250352,11.5936377767005,-13.4138549461371
14.068326433078,-4.3936455286529,-11.8367796499883,5.4512598449513,-20.9445890958448,-27.8600096087767,-20.8674622782397,50.9117716149449,-36.014036370435,11.1675127247644,-12.8650694541782
14.163069756064,-3.89493816648484,-11.8147670119536,5.48286467227214,-20.6365495454115,-26.9839569170931,-20.5680858717137,49.2914702269949,-36.0578742524602,10.7350154247393,-12.3029410469299
14.2056452964526,-3.38323488018749,-11.7966580441134,5.52358804273903,-20.3417976273824,-26.1117729488569,-20.2852358443417,47.6577717243961,-36.1112648679341,10.2982270332729,-11.7307489092982
14.1966526546889,-2.86090553861591,-11.7821513729391,5.57317936649633,-20.0606634334451,-25.247177172094,-20.0191325780865,46.0172804726101,-36.1719866228237,9.85944926656189,-11.1518873199514
14.1371740586506,-2.33038321681597,-11.7709121430999,5.63129900300512,-19.7932512669982,-24.3936925418804,-19.7696793114878,44.3765436091922,-36.2378145169336,9.42117315007189,-10.5698195025726
14.0287486177245,-1.7941299451725,-11.762584735479,5.69752628007104,-19.5394689515331,-23.5546023773271,-19.5364992128449,42.7419764391691,-36.3065785335371,8.98603979555142,-9.98803054991213
13.8733408659701,-1.2546031044403,-11.7568054936746,5.77136873120505,-19.2990583598496,-22.7329143030387,-19.3189783200373,41.1197924679762,-36.3762152242442,8.55679455727112,-9.40998049743999
13.6733043003829,-0.71422317049373,-11.7532150181703,5.85227229096781,-19.0716259879606,-21.9313315430337,-19.1163121433085,39.5159393040608,-36.4448111567088,8.1362361913791,-8.8390586092213
13.4313406839784,-0.175343445950934,-11.7514696268467,5.93963216316384,-18.8566725996455,-21.1522315758006,-18.9275537700322,37.9360413214322,-36.510637599948,7.72716280517823,-8.27853987786486
13.1504559282342,0.359777660127941,-11.7512516278021,6.03280405903716,-18.6536211569733,-20.3976519435115,-18.751661460368,36.3853496389752,-36.5721764457506,7.33231645295182,-7.73154462955831
12.8339133951714,0.889001329461048,-11.7522781070287,6.13111549025302,-18.4618424308227,-19.66928284743,-18.5875439500513,34.8686996794374,-36.6281378494056,6.95432824258523,-7.20100197585204
12.4851854663623,1.41032962955426,-11.7543079969614,6.23387679809416,-18.2806778572898,-18.9684660448171,-18.4341019547863,33.3904763334286,-36.6774703986696,6.59566577435609,-6.68961768772029
12.1079042152175,1.92192312942106,-11.7571472570868,6.34039161280115,-18.1094593666546,-18.2961994825089,-18.2902646812644,31.9545865744516,-36.7193647936998,6.25858462401527,-6.19984689756778
11.7058119912976,2.42211466259702,-11.7606520603704,6.44996646775266,-17.9475260514076,-17.6531470547419,-18.1550204816395,30.5644392471796,-36.7532520620416,5.94508539089179,-5.73387186784105
11.2827126827545,2.90941916490677,-11.7647299366511,6.56191933625864,-17.7942376523198,-17.0396528569193,-18.0274411333789,29.2229316844226,-36.7787972610994,5.65687757244911,-5.29358491593379
10.8424243673082,3.38253960912898,-11.7693388751652,6.67558690571313,-17.6489849282036,-16.4557593211955,-17.9066995726747,27.9324427994952,-36.7958894603638,5.39535124305638,-4.88057647391024
10.3887339956537,3.84036914733363,-11.7744844357454,6.79033045483289,-17.5111970427165,-15.9012286543509,-17.7920812383376,26.6948323372239,-36.8046285898698,5.16155724450955,-4.49612818948148
9.92535467628434,4.28198965823872,-11.780214969448,6.90554026488381,-17.3803461585361,-15.3755670356054,-17.6829894757601,25.5114460188831,-36.8053095468817,4.95619633725486,-4.14121091603792
9.45588604997352,4.70666698317,-11.7866151104809,7.02063858100242,-17.2559494805016,-14.8780510568913,-17.5789456931963,24.383126351949,-36.7984038158913,4.77961748003471,-3.81648736452927
8.98377815815516,5.11384321418694,-11.793797772166,7.13508123283775,-17.1375690333366,-14.4077558975554,-17.4795851398798,23.310228876724,-36.7845387965071,4.6318250777105,-3.52231909099378
8.51229912477312,5.50312646207482,-11.801894955567,7.24835810057391,-17.0248094910243,-13.963584723541,-17.384649268428,22.2926435859929,-36.7644750466186,4.5124946778926,-3.25877738684383
8.04450688831425,5.87427857381942,-11.8110477507254,7.35999265471933,-16.9173143911913,-13.5442987942932,-17.2939756438657,21.3298211866659,-36.7390817200696,4.42099625036133,-3.02565754900438
7.58322514206283,6.2272012875599,-11.8213959606914,7.46954080347683,-16.814761071267,-13.1485477600761,-17.2074862828535,20.4208037829473,-36.70931058974,4.35642389342613,-2.82249595231269
7.13102356826772,6.56192131198273,-11.833067794485,7.57658926088315,-16.7168546598782,-12.774899646956,-17.1251751796439,19.5642594600565,-36.6761691791335,4.31763060890156,-2.64858933456477
6.69020238778987,6.87857480492162,-11.8461700589608,7.68075361938156,-16.6233214540673,-12.4218700521568,-17.0470956295066,18.7585201493151,-36.6406936590028,4.30326668443535,-2.5030157335036
6.26278119242748,7.17739170783073,-11.860779243961,7.7816762873033,-16.5339020126433,-12.0879500977458,-16.9733478168326,18.0016220751445,-36.6039222755193,4.31182021583391,-2.38465658057779
5.85049198355047,7.45868036723956,-11.8769338529547,7.8790244404962,-16.4483442934769,-11.7716327099275,-16.9040670052021,17.2913480366846,-36.5668701341364,4.34165838416038,-2.29221955463373
5.45477630830865,7.72281283736747,-11.8946282907754,7.9724881318222,-16.3663971514043,-11.4714368070724,-16.8394125538227,16.6252707695971,-36.5305061441103,4.39106825831636,-2.22426192196763
5.07678636301533,7.9702112061765,-11.9138085767673,8.06177868934285,-16.2878044886333,-11.1859290056586,-16.7795578894679,16.0007966659486,-36.4957328240035,4.45829609480787,-2.17921421646777
4.71738992068793,8.20133521766788,-11.9343700870579,8.1466275042197,-16.2123003076599,-10.9137425126444,-16.7246814860288,15.415209190802,-36.4633694980848,4.54158431020656,-2.15540420895667
4.37717893302891,8.41667138045909,-11.9561574292357,8.22678526698485,-16.1396048608041,-10.6535929779996,-16.6749588445545,14.8657114065575,-36.4341392223678,4.63920547272029,-2.15108114434871
4.05648165156365,8.6167236701337,-11.9789664256195,8.30202167207021,-16.0694220332443,-10.4042912158301,-16.63055542376,14.3494670865087,-36.4086596070274,4.74949279090097,-2.16444018323028
3.7553781017653,8.80200586417246,-12.0025480576443,8.37212558835527,-16.0014380500482,-10.1647528296904,-16.5916204424976,13.8636399619602,-36.3874375572895,4.87086669426337,-2.19364690155452
3.47371872009707,8.97303549740035,-12.0266141333239,8.43690568667319,-15.9353215609099,-9.93400486603432,-16.5582814564955,13.4054307012868,-36.3708678240463,5.00185723422336,-2.23686162430068
3.21114591908182,9.13032938734608,-12.0508443919407,8.49619151193579,-15.8707251164482,-9.71118966296113,-16.5306395952984,12.9721112623407,-36.3592351288797,5.14112219001512,-2.29226332437211
2.96711827338355,9.27440064496215,-12.0748947421028,8.54983497750268,-15.8072879961854,-9.49556607661285,-16.5087653321937,12.5610562891486,-36.3527195075688,5.28746090910597,-2.35807280069621
2.74093691794419,9.40575705283102,-12.0984063200328,8.59771224139175,-15.7446402807111,-9.28650827838304,-16.4926946596299,12.169771241268,-36.3514044074308,5.43982400256,-2.43257483539484
2.53177362133651,9.52490066036612,-12.1210150418192,8.63972590311688,-15.6824079893085,-9.08350233663839,-16.4824255666851,11.7959169583985,-36.355286981589,5.59731904637831,-2.51413900393474
2.33869985579558,9.63232841429,-12.1423613079284,8.67580743944325,-15.6202190451351,-8.88614082781739,-16.4779147681039,11.4373303888031,-36.3642899512612,5.75921243965668,-2.60123877530467
2.16071605044505,9.72853361315452,-12.1620995107138,8.70591977477601,-15.5577097960942,-8.69411575599419,-16.4790747087016,11.0920412588292,-36.3782743633288,5.92492757335606,-2.69246850372066
1.99678011270647,9.81400794974506,-12.1799070055547,8.73005985569744,-15.4945318134598,-8.50721008679052,-16.4857709431758,10.7582845296273,-36.3970525682745,6.09403948976791,-2.78655789967309
1.84583426247311,9.88924389159602,-12.1954922363235,8.74826107565573,-15.4303587037862,-8.32528821153509,-16.4978200465657,10.4345085617806,-36.4204007933857,6.26626626527494,-2.8823835924741
1.70682926620343,9.95473715400671,-12.2086017524431,8.7605953862439,-15.3648926905563,-8.14828564624752,-16.5149882292287,10.1193789756392,-36.4480707860418,6.44145741463642,-2.97897745543204
1.57874529290548,10.0109890427207,-12.2190259124357,8.76717494198059,-15.2978707423137,-7.97619824100094,-16.5369908133922,9.8117782544222,-36.4798001343247,6.61957967655936,-3.07553144262459
1.46060883344115,10.0585084792111,-12.2266031332785,8.76815315188706,-15.2290700419241,-7.80907114062962,-16.5634926948047,9.51080120234517,-36.5153210076066,6.80070058773583,-3.17139877425514
1.35150540424946,10.0978135621951,-12.2312226121202,8.7637250440079,-15.1583126104547,-7.64698771154153,-16.5941098850488,9.21574645691807,-36.5543671727996,6.98497027930369,-3.26609140475841
1.25058805988288,10.1294325581626,-12.2328255120132,8.75412688109651,-15.0854689290551,-7.49005863807955,-16.6284122189564,8.92610436969737,-36.5966792256631,7.17260192849432,-3.35927380858103
1.1570820248433,10.1539042482298,-12.2314046610767,8.73963499448702,-15.0104604579017,-7.33841139111443,-16.6659273157401,8.64154170745465,-36.6420080386881,7.36385127011313,-3.45075321453094
1.0702859877126,10.171777588182,-12.2270028612459,8.72056382877935,-14.9332610355408,-7.19218027080773,-16.7061458899925,8.36188376648311,-36.6901164794045,7.55899553481257,-3.54046651244925
0.989570754412108,10.1836106640244,-12.219709938027,8.69726321215879,-14.8538972313229,-7.05149721494567,-16.7485284975001,8.08709460365047,-36.7407795083911,7.7583121588291,-3.62846415726201
0.914376022233708,10.189968948135,-12.2096586892464,8.67011488514405,-14.772447780862,-6.91648353878702,-16.7925137469427,7.81725613472759,-36.7937828353675,7.96205761741187,-3.71489151055946
0.844206016137713,10.1914228832317,-12.1970199131064,8.63952833477518,-14.6890422400059,-6.78724273266744,-16.8375279052639,7.55254682126825,-36.8489203922812,8.17044676705346,-3.79996817793645
0.77862463911906,10.188544844549,-12.1819967171445,8.60593599397838,-14.6038589595967,-6.66385439606166,-16.8829956925621,7.29322058218223,-36.9059909556008,8.38363312546139,-3.88396600331977
0.717250651422919,10.1819055542222,-12.1648183295405,8.56978787919349,-14.5171224401318,-6.5463693410024,-16.9283519365187,7.03958646034126,-36.9647942938065,8.60169056158409,-3.96718645708823
