Finger Velocity,Scap_X,Scap_Y,Scap_Z,Shoulder horiz abd-adduction,Shoulder flexion-extension,Shoulder internal-external rotation,elbow flexion-extension,forearm pronation-supination,wrist flexion-extension,wrist radial-ulnar deviation
1.98785861975939,-16.1239954287671,-27.6203268446551,6.50186010221745,-15.6399013769433,-19.6321205413068,-19.7173975722548,56.1844027342188,-25.6318822974988,-22.6982707779979,-0.815918740778871
2.63048185150699,-16.208472395535,-27.6580171771339,6.39434418408937,-15.5812861778527,-19.4790824886101,-19.6176996432992,56.3923105519078,-25.4152437474695,-22.1332929886343,-1.40301486568141
3.33937148086938,-16.2980229215587,-27.6834980676657,6.27786929687824,-15.5256460820682,-19.3161726818947,-19.5077880147257,56.6463892912494,-25.1946237096782,-21.516355421634,-2.0416064412937
4.11077864610111,-16.392377694895,-27.696183019472,6.15269670913661,-15.4736403997947,-19.1419470392184,-19.3876248043156,56.9497407594625,-24.9694861925667,-20.8517624600406,-2.72761222288596
4.94120235601957,-16.491221077134,-27.695560190597,6.01913886613446,-15.4258849347888,-18.9549492473109,-19.2572312182709,57.3051637656847,-24.7390695015735,-20.144882562234,-3.45607960460329
5.82687002695481,-16.594194905359,-27.6811941879328,5.87754860931015,-15.3829387049022,-18.7537359727394,-19.1166767720513,57.7151073526679,-24.5023886905408,-19.4020034586664,-4.22132511372629
6.76354123603812,-16.7009026851438,-27.6527275007454,5.72830767741705,-15.3452910536104,-18.536902374182,-18.9660671001479,58.1816289562709,-24.2582478424883,-18.6301472936023,-5.01710224239477
7.74643938637383,-16.8109140530612,-27.6098815748248,5.57181490573217,-15.3133495215035,-18.3031073221431,-18.8055309173322,58.7063581823809,-24.0052626705721,-17.8368567376198,-5.83678575751416
8.77024321667975,-16.9237693961609,-27.5524574889501,5.40847455299231,-15.2874288632621,-18.0510977760874,-18.6352067523961,59.2904667652567,-23.7418935170195,-17.0299652349135,-6.67356028584626
9.82911098876227,-17.0389845195494,-27.4803361684035,5.23868518168532,-15.2677416063435,-17.7797318134123,-18.4552300974037,59.9346451539534,-23.4664883541443,-16.2173653467317,-7.52060095322896
10.9167250597424,-17.1560552530961,-27.3934780544343,5.06282949738895,-15.2543905503595,-17.4879998459043,-18.2657216008927,60.6390860657285,-23.1773348526741,-15.4067885715654,-8.37123516036105
12.0263504901788,-17.2744618889727,-27.2919221420596,4.88126551755609,-15.2473635931944,-17.1750435985653,-18.0667768848534,61.4034752371805,-22.8727200000499,-14.6056081951494,-9.21907699826554
13.1509038887321,-17.3936733466589,-27.1757843015369,4.69431939138154,-15.2465312333724,-16.8401724654291,-17.8584584878931,62.2269894666558,-22.5509952168305,-13.8206738818934,-10.0581289974035
14.2830298453259,-17.5131509726142,-27.0452548125768,4.5022801323246,-15.2516470344712,-16.4828769001153,-17.6407903347182,63.108301841493,-22.2106445802666,-13.058183188059,-10.8828494285423
15.4151828457653,-17.6323518993407,-26.900595064642,4.30539645284169,-15.2623512485509,-16.1028385486951,-17.4137550042483,64.0455937863593,-21.8503537062088,-12.3235914143053,-11.6881867556766
16.5397128266874,-17.7507319149637,-26.7421334077038,4.10387580519141,-15.2781776883187,-15.6999368912905,-17.1772939158926,65.0365733278204,-21.4690769745741,-11.6215578053708,-12.469585642004
17.6489526724799,-17.8677478308653,-26.5702601684826,3.8978856353028,-15.2985638189767,-15.2742522293824,-16.9313103870817,66.0784988437939,-21.0661009034846,-10.955923586323,-13.2229708254467
18.7353060478517,-17.9828593801249,-26.3854218696904,3.68755675573398,-15.3228639123744,-14.8260649447282,-16.6756753548691,67.1682075940671,-20.6411014556262,-10.3297159473857,-13.9447161207926
19.7913340369259,-18.0955307286156,-26.1881146990789,3.47298864586069,-15.3503649673856,-14.3558510714403,-16.4102354161839,68.3021484615134,-20.1941929517168,-9.74517174423561,-14.6316058771254
20.8098391400047,-18.2052317241253,-25.9788772724714,3.25425639823435,-15.3803049571588,-13.8642743651787,-16.1348227314281,69.4764184890855,-19.7259662169935,-9.20377506119623,-15.2807956179591
21.7839452712939,-18.3114390353099,-25.7582827313327,3.03141895557985,-15.4118928326692,-13.3521752060022,-15.849266255842,70.6868029150423,-19.237513707115,-8.70630357637759,-15.8897775106498
22.7071725086283,-18.413637334053,-25.5269302287956,2.80452822881914,-15.4443296121199,-12.8205568054012,-15.5534037140173,71.9288184643661,-18.7304396892422,-8.2528796357371,-16.4563549108273
23.5735054705335,-18.5113206540981,-25.2854359005083,2.57363865443733,-15.4768298271907,-12.2705692795116,-15.2470937187509,73.1977596425196,-18.2068540887647,-7.84302294657309,-16.9786286359602
24.3774543359861,-18.6039940272488,-25.0344234822146,2.33881673738195,-15.508642577363,-11.703492194905,-14.9302274613074,74.4887476991813,-17.6693493250997,-7.47570276394574,-17.4549959560086
25.1141076761804,-18.691175468609,-24.7745148035108,2.10015013220516,-15.5390714542704,-11.1207162032213,-14.6027394687442,75.7967817923974,-17.1209603042472,-7.14938830320694,-17.8841616698277
25.7791764329677,-18.7723983597381,-24.5063204353407,1.8577558415713,-15.5674926336118,-10.5237243708222,-14.2646170308689,77.1167917060554,-16.565108643837,-6.86209680226982,-18.2651591846416
26.3690285525225,-18.8472142614298,-24.2304307876538,1.61178715865538,-15.5933704926145,-9.91407378347081,-13.9159080332632,78.443691282546,-16.0055330929513,-6.61143914207852,-18.5973783354657
26.8807139620751,-18.9151961720899,-23.9474079458419,1.36243904607726,-15.6162701999506,-9.29337795671377,-13.5567270772766,79.7724315605464,-15.4462088826363,-6.39466323370394,-18.8805958566955
27.3119797589905,-18.9759422304826,-23.6577785078743,1.10995172209438,-15.6358668461192,-8.66329050231349,-13.1872599021381,81.098052490279,-14.891259322051,-6.20869555539111,-19.1150040226863
27.6612756618083,-19.0290798415791,-23.3620276445144,0.854612305900474,-15.6519508359314,-8.02549039018691,-12.8077662267161,82.4157320651946,-14.3448632799737,-6.05018133097103,-19.3012330597606
27.9277499488561,-19.074270181414,-23.0605945553989,0.596754451991104,-15.6644294440339,-7.38166901352574,-12.4185811857372,83.7208317750046,-13.8111622348474,-5.91552392172556,-19.4403635085773
28.1112362785981,-19.1112130128616,-22.7538694363377,0.336755978726273,-15.673324623967,-6.73351912578241,-12.0201155494617,85.0089374475207,-13.294170353208,-5.80092408658391,-19.5339257339944
28.2122319439847,-19.1396517221025,-22.4421920122604,0.0750345723179534,-15.6787673406603,-6.08272558416182,-11.6128549015074,86.2758947870649,-12.7976906189253,-5.70241986892829,-19.5838851221643
28.2318682579211,-19.1593784688558,-22.1258516314452,-0.187958273379258,-15.6809888466388,-5.43095771351596,-11.1973579239345,87.5178392040461,-12.325239457612,-5.61592798635777,-19.5926129969361
28.1718738959641,-19.1702393347535,-21.8050888634387,-0.451744841842214,-15.6803094311046,-4.77986300406793,-10.7742539123717,88.7312198259044,-11.8799816565712,-5.53728770397082,-19.5628447315483
28.0345321330959,-19.1721393530792,-21.4800984944523,-0.715829992132104,-15.6771252346276,-4.13106178364974,-10.3442396191847,89.9128178476987,-11.4646767338781,-5.46230822327449,-19.4976277449963
27.8226330017995,-19.1650473056771,-21.1510337676145,-0.979710800226704,-15.6718937448082,-3.48614246553974,-9.90807549846269,91.0597595921043,-11.0816373066368,-5.38682058064219,-19.400262914081
27.5394214668206,-19.1490001742034,-20.8180116715219,-1.24288663078735,-15.6651185785882,-2.84665696785929,-9.46658140190229,92.169524784865,-10.7326994798162,-5.3067348985607,-19.2742433129302
27.1885427564443,-19.1241071295886,-20.4811190422959,-1.50486920235917,-15.6573341219161,-2.21411592960863,-9.02063174789915,93.2399506073173,-10.4192048454792,-5.21810355292973,-19.1231940869879
26.7739860097101,-19.0905529347525,-20.1404192152264,-1.76519220855104,-15.6490905405205,-1.58998341207582,-8.57115015525299,94.2692320702963,-10.1419933594389,-5.11719037226348,-18.9508167260846
26.30002739302,-19.0486006230124,-19.7959589435172,-2.0234200889627,-15.6409395990857,-0.975670871428781,-8.11910349971337,95.2559191806319,-9.90140614727696,-5.00054532677207,-18.7608401277129
25.7711738078799,-18.9985933030493,-19.4477752934924,-2.27915560575701,-15.6334216333356,-0.37253031261212,-7.66549532715827,96.1989112641387,-9.69729717226439,-4.86508332310532,-18.5569797742751
25.1921082544065,-18.9409549386624,-19.0959022280191,-2.53204596240592,-15.6270539131863,0.218153326921392,-7.21135855829708,97.0974486907973,-9.52905265528194,-4.70816482343108,-18.3429052374923
24.5676378337514,-18.8761899648474,-18.7403766044537,-2.78178728720264,-15.622320519866,0.795170380974324,-6.75774745540521,97.9511021419717,-9.39561714925093,-4.52767522498452,-18.1222152174954
23.9026452684478,-18.8048816311704,-18.3812433419849,-3.02812739054369,-15.6196637468073,1.35739495147309,-6.30572888384868,98.7597594861254,-9.29552521771648,-4.32209940019335,-17.8984185452639
23.2020446953214,-18.727689001427,-18.0185595556483,-3.27086679122511,-15.6194769392643,1.90379332727854,-5.85637297101093,99.5236103004728,-9.22693773586639,-4.09058758683103,-17.6749191077572
22.4707423441906,-18.6453425753439,-17.6523975084684,-3.50985809130392,-15.6220986246861,2.43343191736453,-5.41074332551614,100.243128091551,-9.18768191558947,-3.83300896675917,-17.4550025391187
21.7136025609509,-18.5586385265314,-17.282846297188,-3.74500385677073,-15.6278077609752,2.94548429524855,-4.96988702350621,100.919050317293,-9.17529424796682,-3.54998976174989,-17.2418227606161
20.9354194701238,-18.4684315683995,-16.9100122586945,-3.97625322529197,-15.636819941297,3.43923699374155,-4.53482459817523,101.552356380846,-9.18706564717611,-3.242933433822,-17.0383870034474
20.1408944041447,-18.3756264697572,-16.5340181585326,-4.20359750541776,-15.6492844346572,3.91409376190505,-4.106540287396,102.144243837946,-9.22008815778312,-2.91402151118026,-16.8475387290875
19.3346190590317,-18.2811682542294,-16.1550012927168,-4.42706505018934,-15.6652819991117,4.36957809002033,-3.68597280317501,102.696103126706,-9.27130264326361,-2.56619458214404,-16.6719387557832
18.5210641724358,-18.1860311432426,-15.7731106940213,-4.64671568377293,-15.6848234652251,4.8053339141695,-3.27400688401206,103.209491185877,-9.33754689992671,-2.20311402828489,-16.5140457677436
17.7045733629029,-18.0912063444291,-15.3885036816076,-4.86263493876224,-15.7078491402762,5.22112452098273,-2.87146587162008,103.686104369085,-9.4156036325493,-1.82910602351785,-16.3760980824637
16.8893616187912,-17.9976888394957,-15.0013420261527,-5.07492833142415,-15.7342291234657,5.61682977484363,-2.47910551032095,104.127751081897,-9.50224769170641,-1.44909013741661,-16.2600989662742
16.0795177788153,-17.9064633768148,-14.611788018763,-5.28371586725385,-15.7637646463717,5.99244187249271,-2.09760910068725,104.536324561988,-9.59429193086157,-1.06849549365571,-16.1678078532273
15.2790101964742,-17.8184899137256,-14.2200007300592,-5.48912693117255,-15.7961905588804,6.34805988470771,-1.72758405825524,104.913776190319,-9.68863102557721,-0.693167795320695,-16.1007395208186
14.4916946151648,-17.734688775534,-13.8261327287277,-5.69129567674176,-15.8311790700759,6.68388337019472,-1.36955984500504,105.262089669448,-9.78228262758331,-0.329270587811845,-16.0601726319386
13.721323080988,-17.6559258032048,-13.430327500238,-5.89035699169036,-15.8683448317267,7.00020534717052,-1.02398716174343,105.583256344349,-9.87242529915,0.0168161322510806,-16.0471681328792
12.9715524616889,-17.582997757211,-13.0327177673816,-6.08644309033705,-15.9072514234356,7.29740488795614,-0.691238215366747,105.879251881279,-9.95643277036418,0.338597405794263,-16.0625969087233
12.245950794944,-17.5166182403496,-12.6334248650172,-6.27968077181699,-15.9474192626384,7.57593956578845,-0.371607809615886,106.152014467011,-10.0319041691157,0.629563108605949,-16.1071749657818
11.5479992326209,-17.457404402544,-12.2325592650613,-6.47018938328243,-15.9883349174151,7.83633793783754,-0.065314959428211,106.403424648941,-10.0966899876972,0.883285153827518,-16.1815033568994
10.8810867721353,-17.4058646930253,-11.8302222897748,-6.65807952857369,-16.0294617470325,8.07919220150686,0.22749529094421,106.63528691107,-10.1489136721476,1.09351209878991,-16.286109191301
10.2484943065667,-17.3623879221445,-11.4265089953064,-6.84345255177236,-16.0702517403376,8.30515111710054,0.506750147154332,106.849313072483,-10.1869888426692,1.25426197678345,-16.4214834520302
9.65336389895692,-17.3272338796585,-11.0215121538297,-7.02640079205445,-16.1101583733139,8.51491325126671,0.772447682305303,107.047107598016,-10.2096322540603,1.35991482427083,-16.5881110284393
9.09864884445576,-17.3005257263486,-10.6153272116929,-7.20700854845249,-16.1486502688545,8.70922056487142,1.02465593660515,107.230154915823,-10.2158726630633,1.40530677106126,-16.7864883844232
8.58704045874298,-17.2822443335768,-10.2080580534245,-7.38535361282189,-16.1852254114504,8.88885234823483,1.26351251557769,107.399808834082,-10.2050557798853,1.38582763482809,-17.0171246443959
8.12086923240348,-17.2722246981608,-9.79982335641067,-7.56150913656567,-16.2194256378888,9.05461949435492,1.48922455803591,107.557284133072,-10.1768454560859,1.29752365670443,-17.280522610092
7.7019816762978,-17.2701545197168,-9.39076327693742,-7.73554551509188,-16.2508510819209,9.20735909014556,1.70206880737757,107.70365037857,-10.1312212213626,1.13720629825515,-17.5771373356592
7.33160021408453,-17.2755750054676,-8.98104616597471,-7.90753193218058,-16.2791741912628,9.34792928902045,1.90239142120918,107.839827961896,-10.0684722469298,0.902566895267882,-17.9073113725383
7.01018136002693,-17.2878839654797,-8.57087497674567,-8.07753721514773,-16.3041528632345,9.47720440292711,2.09060710854863,107.966586327596,-9.98918779250864,0.592295487880838,-18.2711876002879
6.73729525075497,-17.3063412719686,-8.16049300102373,-8.24562969829836,-16.3256421726141,9.59607012345461,2.26719718075345,108.084544309222,-9.89424418698941,0.206200440369648,-18.6686025960903
6.51155405960928,-17.3300767711239,-7.75018856252588,-8.41187586345685,-16.3436041074341,9.70541875816562,2.43270613238275,108.194172464143,-9.78478839742516,-0.254676293073316,-19.0989656252346
6.3306142878541,-17.3581007483958,-7.34029830888872,-8.57633762342231,-16.358114702123,9.80614435554491,2.5877364394306,108.29579728568,-9.66221825486467,-0.787954990134557,-19.5611303690188
6.19126665006088,-17.3893170465507,-6.93120878332293,-8.73906823759942,-16.369367981737,9.89913759401249,2.732941382442,108.389607179935,-9.52815942147305,-1.38983301025691,-20.0532682374034
6.08960937350036,-17.4225388994561,-6.52335602582886,-8.90010698363977,-16.3776762251117,9.98528033227991,2.86901585636202,108.475660129116,-9.38443919583997,-2.05502727725247,-20.5727533587088
6.02128214210241,-17.4565074580926,-6.11722304878377,-9.05947283687737,-16.3834662232324,10.0654397605141,2.99668529196435,108.553893020134,-9.23305727625211,-2.7767530383094,-21.1160699576105
5.9817255635937,-17.4899128564424,-5.71333514542641,-9.21715753146714,-16.38727142958,10.1404621471256,3.11669297651827,108.624132681709,-9.07615367170547,-3.54674690045217,-21.6787526942317
5.9664290293265,-17.5214175221879,-5.31225311762449,-9.37311850596628,-16.3897201319316,10.2111662383587,3.22978623271409,108.686108720381,-8.91597410172426,-4.35534072153005,-22.2553694794579
5.97113746539744,-17.5496813096303,-4.9145646454544,-9.52727236463646,-16.3915199855398,10.2783364365092,3.3367020898846,108.739468251752,-8.75483345751186,-5.19159061056592,-22.8395541516345
5.99200035695538,-17.5733879338717,-4.52087414590445,-9.67948957452438,-16.3934394181001,10.3427159520059,3.43815322241521,108.78379257539,-8.59507816065819,-6.04346206671388,-23.4240931735112
6.02565942684789,-17.5912721157039,-4.13179155391146,-9.8295911240711,-16.3962865444815,10.4050001799867,3.5348149913398,108.818615743705,-8.43904847469133,-6.8980683708994,-24.0010663944203
6.06928099424321,-17.6021468001496,-3.74792049109489,-9.9773477820104,-16.4008863189971,10.4658305786402,3.62731439242379,108.843444844167,-8.28904192872374,-7.74195516606758,-24.562037367085
6.12054424664693,-17.6049297827946,-3.36984626835417,-10.1224824404208,-16.4080567116471,10.5257893155829,3.7162216065914,108.857781674504,-8.14727896982731,-8.5614202642358,-25.0982843038955
6.17759809571705,-17.5986690607337,-2.99812410929032,-10.264675830966,-16.418584727566,10.5853948985874,3.80204468754344,108.861145362583,-8.01587178985477,-9.34285463719845,-25.601059112402
6.2389983205296,-17.5825662124684,-2.63326790193422,-10.4035756794017,-16.4332031005374,10.6450989305617,3.88522771329569,108.853095377703,-7.89679702641957,-10.0730887016172,-26.0618595607634
6.30363462435927,-17.5559971033456,-2.27573971228923,-10.5388091141999,-16.4525684838712,10.705284049483,3.96615247862845,108.833254300401,-7.79187277763036,-10.739727621552,-26.4726987772466
6.3706549286723,-17.5185292237281,-1.92594024236206,-10.6699978905219,-16.4772419298054,10.766263049413,4.04514353986879,108.801329664265,-7.70274014183017,-11.3314604087024,-26.8263570087138
6.4393921637755,-17.4699350190595,-1.58420038968796,-10.796775771916,-16.5076723810099,10.8282791310148,4.12247618796913,108.757134160282,-7.63084931928638,-11.8383298668646,-27.1166026288201
6.50929714881818,-17.4102006791992,-1.2507740603222,-10.9188072659502,-16.5441837892863,10.8915071973876,4.19838675787461,108.700603510167,-7.57745019588511,-12.2519535155102,-27.3383723981352
6.57987987587303,-17.3395300097979,-0.925832400603636,-11.0358068380149,-16.5869663356188,10.9560560987698,4.27308458240127,108.631811375431,-7.54358726062544,-12.5656890884549,-27.4879044528906
6.65066054770931,-17.258343183119,-0.609459640861677,-11.1475576988302,-16.6360720695398,11.0219717445862,4.34676483952483,108.550980769257,-7.53009867145816,-12.7747416032364,-27.5628209603443
6.72113098256151,-17.1672703349748,-0.301650772031146,-11.2539292483514,-16.6914151265432,11.0892410381576,4.41962150180635,108.458491565992,-7.53761925781468,-12.876211993194,-27.5621604431417
6.79072642610382,-17.0671401313481,-0.00231127802172961,-11.3548922608409,-16.7527765203842,11.1577966270095,4.49185957724624,108.354883844425,-7.56658722089275,-12.8690897014743,-27.4863622211469
6.8588073601706,-16.9589635758277,0.288740901158778,-11.4505309229281,-16.8198133380725,11.2275224767776,4.56370583755578,108.240856946779,-7.61725426276304,-12.7541934358998,-27.3372072051733
6.92465054930066,-16.8439134650561,0.571771101814724,-11.5410508902278,-16.8920719926385,11.2982602623611,4.63541725614383,108.117264280172,-7.68969884461965,-12.5340655760403,-27.1177204945516
6.98744831215467,-16.7233000134947,0.847121419666765,-11.6267826163668,-16.9690050311509,11.3698165406022,4.70728642729829,107.985104027814,-7.78384224255744,-12.212826653112,-26.832042029771
7.04631484185683,-16.5985432516321,1.11520211045853,-11.7081793620873,-17.0499908802158,11.4419706472937,4.77964334406454,107.845506070459,-7.89946703239607,-11.7959970165105,-26.4852720777926
7.10029832243048,-16.4711428573807,1.37648113942538,-11.7858095385214,-17.1343558496393,11.5144832575921,4.85285310873649,107.699715542892,-8.03623758872383,-11.2902933399586,-26.083298685438
7.14839758833749,-16.3426461299581,1.63147214216372,-11.8603433605693,-17.2213976836516,11.5871055473779,4.92730942334429,107.549073563807,-8.19372212672012,-10.7034080391447,-25.632614473827
7.18958213650983,-16.2146148824052,1.88072109939167,-11.9325341291427,-17.3104099072909,11.6595888650512,5.00342400424893,107.394995775681,-8.37141575490594,-10.0437799499334,-25.1401302454153
7.22281440775543,-16.0885921154815,2.12479210189333,-12.003194775483,-17.4007061451865,11.7316947541363,5.08161233631635,107.238949402495,-8.56876395324243,-9.32036466316778,-24.6129927448743
