Finger Velocity,Scap_X,Scap_Y,Scap_Z,Shoulder horiz abd-adduction,Shoulder flexion-extension,Shoulder internal-external rotation,elbow flexion-extension,forearm pronation-supination,wrist flexion-extension,wrist radial-ulnar deviation
1.8452484021462,-18.7477171912075,-18.8944451924132,5.08173734075028,-12.1034372563137,-33.1324356361737,-10.7915133946738,55.4551405008276,-18.4033343899027,-10.5705034989963,3.16137757354442
2.30743890528198,-18.7970105481259,-18.8813750563562,4.9569850908849,-12.0392989685633,-32.9642803828662,-10.737221191985,55.4760447186756,-17.7234202818203,-9.88093085436014,2.21996871407266
2.85163215210433,-18.8515382575254,-18.864042155573,4.82778291247835,-11.9731821057745,-32.7771376339092,-10.6805591109547,55.5274165864918,-17.0404642730372,-9.18291351866123,1.24320050308898
3.46869596951588,-18.9112065985158,-18.8419114906154,4.6946949695471,-11.9053958829177,-32.5699311017144,-10.6216098883665,55.612235240454,-16.3588949969926,-8.48502752555066,0.240126784362526
4.15195760561245,-18.9758651907739,-18.8144154836615,4.55828701975278,-11.8362134904403,-32.3416700669548,-10.5604241318533,55.7332759848826,-15.6829081325759,-7.79576101771162,-0.779902483934331
4.89599778931232,-19.0453071135328,-18.7809569867387,4.41911269662678,-11.7658607709565,-32.0914666108381,-10.4970141084499,55.8930685070253,-15.0163721575336,-7.12319339174671,-1.80756885068797
5.69589455004816,-19.1192695835862,-18.7409136634732,4.27770025504322,-11.694506683632,-31.8185510811736,-10.4313486430951,56.093859283245,-14.3627453851418,-6.47469955796385,-2.83389625265526
6.54679300154244,-19.1974352091907,-18.6936437603481,4.13454019224836,-11.6222560425296,-31.5222852440611,-10.363349395997,56.3375785444072,-13.7250068381158,-5.85669934300575,-3.85052338755211
7.44367249406348,-19.2794338427097,-18.6384932272678,3.99007412421906,-11.5491449270335,-31.2021726290204,-10.29288875476,56.6258119851355,-13.1056028475039,-5.27446657230544,-4.84992106658915
8.3812300724007,-19.3648450531627,-18.5748040954773,3.84468524996611,-11.4751390536697,-30.8578656558296,-10.219789532991,56.9597772552175,-12.5064105613924,-4.73200556143671,-5.82554486566434
9.35383402810507,-19.4532012321963,-18.5019239678778,3.6986906783769,-11.4001352745006,-30.4891692469421,-10.1438266176342,57.3403051777659,-11.9287188495472,-4.23199585226123,-6.7719205774741
10.3555214671313,-19.5439913373121,-18.4192164109759,3.5523358246809,-11.3239662290802,-30.0960407906301,-10.0647306554972,57.7678256093617,-11.3732264380077,-3.77580011302851,-7.68466640756616
11.3800247818287,-19.6366652676661,-18.3260719538347,3.40579100826943,-11.2464080244734,-29.6785865231589,-9.98219381260042,58.2423578861096,-10.8400565290865,-3.36352587247734,-8.560460783883
12.4208178410607,-19.7306388598384,-18.2219193133338,3.2591503049368,-11.1671906542398,-29.2370546124801,-9.8958775689531,58.7635058637491,-10.3287866683443,-2.99412942864635,-9.39696769197052
13.4711759428223,-19.8252994802175,-18.1062364084248,3.11243263035274,-11.0860107039762,-28.7718254041671,-9.80542241858406,59.3304576403517,-9.83849222605502,-2.66554972482516,-10.1927326291122
14.5242453641188,-19.920012174833,-17.9785607209159,2.96558496085968,-11.0025457487978,-28.2833994024266,-9.71045923590331,59.9419901384457,-9.36780158047932,-2.37486083034472,-10.9470618887313
15.5731193558757,-20.0141263179636,-17.8384986031116,2.81848753209042,-10.9164697490051,-27.7723836109713,-9.61062196217966,60.5964788093847,-8.9149609111589,-2.11843342374828,-11.6598963569986
16.6109180202,-20.1069826810573,-17.6857332057461,2.67096079460559,-10.827468704048,-27.2394768738206,-9.50556117363201,61.2919127865705,-8.47790640087548,-1.8920978714638,-12.3316887642477
17.6308698658941,-20.1979208262799,-17.5200307899217,2.52277385116156,-10.7352558268436,-26.6854548466107,-9.39495801775943,62.0259158354179,-8.05434158929465,-1.69130369718993,-12.9632908076228
18.6263930725701,-20.2862867161291,-17.3412452839375,2.37365405741082,-10.6395855417825,-26.1111551957378,-9.27853794810022,62.7957734119112,-7.64181762247876,-1.51127213167313,-13.5558541015864
19.5911746644267,-20.371440423409,-17.1493210337479,2.22329744051612,-10.5402656855334,-25.5174635719923,-9.15608365639805,63.5984660345733,-7.23781419387267,-1.34713986218065,-14.1107467413256
20.5192459363599,-20.4527638248548,-16.9442937610722,2.07137957840684,-10.4371673957073,-24.9053008455231,-9.02744660125433,64.4307089857159,-6.83981905215972,-1.19409303375379,-14.6294854646431
21.4050526075675,-20.5296681654251,-16.7262897878962,1.91756658499749,-10.3302323021678,-24.2756120181655,-8.89255656433227,65.2889980903472,-6.4454040428934,-1.04749101894095,-15.1136819729857
22.2435183125734,-20.6016013853782,-16.4955236218652,1.76152586431812,-10.2194767835426,-23.6293571399911,-8.75142872684231,66.1696609982535,-6.05229575638027,-0.90297951746378,-15.5650009308763
23.0301001830156,-20.6680551043019,-16.2522940338285,1.6029363304645,-10.1049932120751,-22.9675044470533,-8.60416784581343,67.068913052467,-5.65843899251478,-0.756592242050856,-15.9851265685812
23.7608354289074,-20.7285711522234,-15.9969788026532,1.44149783883906,-9.98694827434898,-22.2910258113865,-8.45096921412918,67.9829165045696,-5.2620514500034,-0.604839915741828,-16.3757347267906
24.4323779968735,-20.7827475289824,-15.7300283540565,1.27693963308766,-9.86557860897443,-21.6008944623412,-8.29211620564,68.9078415682164,-4.86166832295801,-0.444784736964823,-16.7384675747397
25.0420245654986,-20.83024366478,-15.4519585697679,1.10902767716009,-9.74118412875804,-20.8980848152479,-8.12797433798069,69.8399276106436,-4.4561758430495,-0.274098067418173,-17.0749089750884
25.5877293341871,-20.8707848536798,-15.1633430726909,0.937570806662683,-9.61411948230391,-20.1835741464118,-7.95898193250384,70.7755426817002,-4.0448332170064,-0.0910990272808616,-17.3865593850584
26.0681072712923,-20.904165741714,-14.8648052894973,0.762425687213926,-9.484784153484,-19.4583457949744,-7.78563760822981,71.7112395792546,-3.6272828420708,0.105227977939153,-17.6748101051498
26.4824257089782,-20.9302527719403,-14.5570105560159,0.583500600632631,-9.35361169818422,-18.7233935526808,-7.60848500561655,72.6438067506597,-3.20354910928953,0.315238039957983,-17.9409174917694
26.8305844053888,-20.9489855163929,-14.2406584772503,0.400758093993439,-9.22105858429446,-17.9797269090716,-7.42809528786365,73.5703125246951,-2.77402651222862,0.538653038798977,-18.1859783875245
27.1130844379711,-20.9603768541746,-13.9164756983651,0.214216532488718,-9.0875930465349,-17.2283768332186,-7.24504810577419,74.4881414382129,-2.33945814679589,0.774610411755654,-18.4109084948189
27.3309865434762,-20.9645119832532,-13.585209193044,0.0239506037528457,-8.95368430490735,-16.4704017807686,-7.0599118291487,75.3950217395164,-1.9009059773675,1.02173108027092,-18.6164257066616
27.4858597776353,-20.9615462818114,-13.2476201310866,-0.169909168774487,-8.81979243156183,-15.7068936142759,-6.87322393279302,76.2890434883493,-1.45971441595444,1.27820301455614,-18.8030404277785
27.5797216269736,-20.9517020645277,-12.9044783462442,-0.367177833780157,-8.68635908971773,-14.9389831189214,-6.68547246649583,77.1686670090226,-1.01746880304602,1.54187598440582,-18.9710545941458
27.614970961169,-20.9352643089329,-12.5565573885519,-0.567618259133638,-8.55379931261384,-14.1678447878306,-6.49707952447747,78.0327217743438,-0.575950308243669,1.8103625439754,-19.1205704863657
27.5943154592508,-20.9125754548737,-12.2046301149021,-0.770944126279752,-8.42249444012958,-13.3947005432097,-6.30838755185075,78.8803960907398,-0.137088612416992,2.08114028397038,-19.2515097028145
27.5206953668266,-20.8840294039086,-11.8494647494714,-0.976823576796689,-8.29278628616874,-12.6208220529241,-6.11964918136052,79.7112182075437,0.297086481492107,2.35165077860655,-19.3636419587873
27.3972056321165,-20.8500648622282,-11.4918213337381,-1.18488341928894,-8.1649725775763,-11.8475312985694,-5.93102109243288,80.525029682588,0.724493599280974,2.61939130533697,-19.4566227486964
27.2270186114406,-20.8111581790901,-11.1324484843702,-1.39471381346158,-8.03930369222236,-11.0761990574298,-5.74256214566899,81.3219520116922,1.14304781189424,2.88199617160382,-19.5300383335708
27.0133096142276,-20.7678158359008,-10.7720803834076,-1.60587335990458,-7.91598072463606,-10.3082409961031,-5.55423579624216,82.1023476887638,1.55070756018689,3.1373052348123,-19.5834560137098
26.7591875579119,-20.7205667429903,-10.4114339348206,-1.8178945325819,-7.79515490560265,-9.54511116077559,-5.36591656215637,82.8667770192783,1.94551995599696,3.38341789397395,-19.6164772894389
26.4676329104019,-20.6699545009705,-10.0512060314924,-2.0302893872454,-7.67692838597071,-8.78829279142807,-5.17740014421078,83.6159521600225,2.32566384263093,3.61873144537075,-19.6287913667059
26.1414449023861,-20.6165297778202,-9.69207088421842,-2.24255546057218,-7.56135636594096,-8.0392865620774,-4.98841666708591,84.350689980343,2.68948986154959,3.84196322231165,-19.6202265352022
25.7831996901287,-20.5608429416741,-9.33467736800671,-2.45418175233698,-7.44845051326744,-7.29959652813786,-4.79864641981672,85.0718654033075,3.0355566630458,4.0521563915622,-19.5907972050936
25.3952207464961,-20.5034370768572,-8.97964634299182,-2.66465467259155,-7.33818356612121,-6.57071422475203,-4.60773740375502,85.7803668635356,3.36266236231816,4.24866970402662,-19.5407448038035
24.9795622681536,-20.4448415002026,-8.62756791211912,-2.87346384515089,-7.23049496005984,-5.85410148879228,-4.41532394339638,86.4770554024948,3.66987037879778,4.43115196169232,-19.470571263503
24.5380058341995,-20.3855658854795,-8.27899858780691,-3.08010768096266,-7.12529726230641,-5.15117265799064,-4.22104558896254,87.1627287184136,3.95652889239182,4.59950250522268,-19.3810643930098
24.0720699682495,-20.3260950925377,-7.93445835437218,-3.2840986571532,-7.02248315083094,-4.46327683052573,-4.02456555093323,87.8380912135673,4.2222833023183,4.7538196123049,-19.2733149263475
23.5830316799362,-20.2668847821928,-7.59442763052215,-3.48496825174621,-6.92193264808862,-3.7916808506127,-3.82558795471787,88.5037307589855,4.46708128645966,4.89433922161867,-19.1487254139412
23.0719585324475,-20.2083578788776,-7.25934415468316,-3.68227149072556,-6.82352031365533,-3.13755362310219,-3.62387327472646,89.160102551312,4.69117032849789,5.02136675798913,-19.0090113801214
22.5397493368762,-20.1509019235129,-6.92959983215598,-3.87559106687852,-6.72712211410916,-2.50195226307168,-3.41925139501612,89.8075200943016,4.89508788657045,5.13520500126221,-18.856195358433
21.9871812417244,-20.0948673401901,-6.60553759382033,-4.06454099007285,-6.6326217145281,-1.88581047445624,-3.21163185735559,90.4461530205939,5.0796446873804,5.23608095149053,-18.6925945652288
21.4149607866699,-20.0405666206179,-6.28744832072175,-4.24876972746992,-6.53991596782354,-1.28992944086515,-3.00101100291052,91.0760311963072,5.24590190719435,5.32407453896777,-18.5208030817147
20.823776431455,-19.9882744069989,-5.97556789072515,-4.42796279480393,-6.44891941521504,-0.714971406025391,-2.78747587788474,91.6970543332766,5.39514321951762,5.39905182946285,-18.3436694725603
20.2143501491447,-19.9382284249315,-5.67007440825608,-4.60184477000558,-6.3595676543037,-0.161456018126441,-2.57120493493439,92.3090061710709,5.52884284160301,5.46060509760778,-18.164270771999
19.5874858730067,-19.8906311839154,-5.37108568982278,-4.77018071212399,-6.27181947807384,0.370240589598529,-2.35246571063768,92.9115721766076,5.64863080058762,5.50800180796035,-17.9858837248947
18.9441128848117,-19.8456523284548,-5.07865709596022,-4.93277697149075,-6.18565773541369,0.879884108507197,-2.13160979380727,93.5043596428552,5.75625666072242,5.54014417352244,-17.8119540949455
18.2853226016634,-19.8034314931549,-4.79277982077694,-5.08948137038696,-6.10108891145113,1.36737797385081,-1.9090655122837,94.0869190550313,5.8535529039571,5.55554056426162,-17.6460647623906
17.6123976293818,-19.7640814946393,-4.51337976843365,-5.24018272660748,-6.01814147527447,1.8327571959269,-1.68532884180412,94.6587656345881,5.94239904855947,5.5522896199848,-17.4919032468592
16.9268323754215,-19.727691683038,-4.24031715662774,-5.3848096944757,-5.93686309064755,2.27618046903081,-1.46095307078477,95.2194000640367,6.0246874399385,5.52807749434695,-17.353229216021
16.2303449294367,-19.6943312760353,-3.97338698750676,-5.52332891059439,-5.85731682716436,2.69792096030841,-1.23653774302964,95.7683275307935,6.10229146662872,5.48018823756257,-17.233842472797
15.5248803060632,-19.6640525082413,-3.71232051623892,-5.65574245100557,-5.77957654282412,3.09835618729283,-1.01271735689435,96.3050743934369,6.17703675572694,5.40552693803691,-17.1375518405079
14.812605488797,-19.6368934473008,-3.45678782745364,-5.78208462921161,-5.70372163539909,3.47795737493632,-0.790150236057153,96.8292019562158,6.25067570188201,5.30065491162877,-17.0681452713085
14.0958970076221,-19.6128803548991,-3.20640159982967,-5.902418190837,-5.62983138091078,3.83727864660962,-0.569507915583242,97.3403170268892,6.32486549809999,5.16183597159402,-17.029361373058
13.3773220221521,-19.5920295039934,-2.96072209936055,-6.01682999170957,-5.55797909385276,4.17694635338597,-0.351465316430963,97.8380791189515,6.40114967743283,4.98509265384154,-17.0248623709339
12.6596140654975,-19.5743484001905,-2.71926339434889,-6.12542628029824,-5.48822635441988,4.49764878496855,-0.136691914550269,98.3222043305163,6.48094304779002,4.7662712285755,-17.0582082881026
11.945644732642,-19.5598363921782,-2.48150073311832,-6.22832773764905,-5.42061754877472,4.80012643623395,0.0741559549811001,98.7924660787059,6.56551980696717,4.50111439028412,-17.1328318542071
11.2383926719114,-19.5484846915902,-2.24687897096694,-6.32566445180376,-5.35517495549969,5.08516292946958,0.280441585847958,99.2486929855492,6.65600455860611,4.18534064008013,-17.2520133579436
10.5409112588976,-19.5402758549316,-2.01482187841382,-6.4175710151379,-5.2918945878455,5.35357662265079,0.481553178898278,99.6907642978223,6.75336591382858,3.81472951194988,-17.4188543902588
9.85629629526579,-19.5351828069284,-1.78474211356619,-6.50418193293279,-5.2307429758619,5.6062128801084,0.67690798315967,100.118603278859,6.85841236486551,3.38521192083469,-17.6362492215798
9.18765497039168,-19.533167505241,-1.55605160391212,-6.58562752397242,-5.17165504851568,5.84393694988759,0.865955440968163,100.532169037378,6.97179015670019,2.89296500545899,-17.906852458769
8.53807713188137,-19.5341793634618,-1.32817206031042,-6.66203048183295,-5.11453324550954,6.0676273771686,1.0481795377474,100.931447263062,7.09398294270018,2.33451087247837,-18.2330416639471
7.91060959665026,-19.5381535648599,-1.10054533708204,-6.73350324629149,-5.05924794006592,6.27816987245966,1.22310060281207,101.316440330141,7.22531306301383,1.70681858275492,-18.6168738069461
7.30823374040913,-19.5450094105694,-0.872643353056745,-6.80014630210774,-5.00563918579805,6.47645153598914,1.39027683403075,101.687157216465,7.36594431432431,1.00740852029229,-19.0600347735815
6.73384584479003,-19.5546488464557,-0.643977296544265,-6.86204747620986,-4.95351972684974,6.66335531702721,1.54930581609911,102.043603668049,7.51588608978299,0.234457929621689,-19.563781657695
6.19023854281446,-19.5669552988252,-0.414105853968473,-6.91928225269301,-4.90267915115762,6.83975457160336,1.69982626642776,102.3857730141,7.6749987704132,-0.613094097915632,-20.1288782145395
5.68008005664823,-19.5817929222937,-0.182642231840451,-6.97191507996322,-4.85288903274309,7.0065075872061,1.8415201835994,102.713638001015,7.84300025407072,-1.53544453865135,-20.7555246396739
5.20588568668999,-19.5990063292676,0.0507402121155161,-7.02000161006672,-4.80390889501207,7.16445197425792,1.97411550437869,103.027143964737,8.01947352348984,-2.53183031893229,-21.4432837554495
4.76997330943199,-19.6184208360353,0.286303852115046,-7.06359178186626,-4.75549282064026,7.31439888018695,2.09738930462153,103.326203601348,8.20387518648679,-3.60044199485731,-22.1910067110058
4.37439209438048,-19.6398432299835,0.524244245429015,-7.10273363130497,-4.7073965266704,7.45712705334754,2.21117150887099,103.610693532791,8.39554496346503,-4.73835181224513,-22.9967623661979
4.02081281768308,-19.6630630375599,0.764689133156791,-7.13747768189265,-4.65938471521017,7.59337685572316,2.31534900114603,103.880452806713,8.59371613174658,-5.94146138926195,-23.8577755262509
3.71037187052086,-19.6878542521615,1.00769890323401,-7.1678817379592,-4.61123850315746,7.72384438502869,2.40986995394642,104.135283419314,8.79752694386011,-7.20447469866234,-24.7703799751131
3.44347295860825,-19.7139774633813,1.25326836516825,-7.19401587372967,-4.56276272987005,7.84917591734748,2.49474811609384,104.374952902416,9.0060330078891,-8.52090206114466,-25.7299926429295
3.21957248971475,-19.7411823139821,1.50132963218122,-7.21596738544008,-4.51379293909516,7.96996292137645,2.57006673103685,104.599198962986,9.21822055292192,-9.8831003090811,-26.7311150467324
3.03700220986337,-19.7692102003997,1.75175586718516,-7.23384545665772,-4.46420183250378,8.08673792102286,2.63598171038202,104.807736100933,9.43302041364029,-11.2823529943537,-27.7673672034035
2.89290112023748,-19.7977971275783,2.00436563198403,-7.24778528578545,-4.4139050029681,8.19997148717888,2.69272367857342,105.000264059698,9.64932247837647,-12.7089924430116,-28.8315574540195
2.78331833395481,-19.8266766280645,2.25892759168327,-7.25795144462668,-4.36286578181998,8.31007061357193,2.74059854193593,105.176477887739,9.86599027827387,-14.1525626858556,-29.915789116567
2.70350137912917,-19.8555826562768,2.51516536927961,-7.2645402761249,-4.31109907296208,8.41737867094816,2.77998631622727,105.336079313092,10.0818753618377,-15.6020190579198,-31.0116018190133
2.648319591878,-19.8842523715566,2.77276240815707,-7.26778118868033,-4.25867408746015,8.52217704382725,2.81133806351366,105.478789064834,10.2958310966867,-17.0459569518171,-32.1101421266726
2.61272705252488,-19.9124287304049,3.0313667661219,-7.26793675368304,-4.20571592708047,8.624688449981,2.8351709311822,105.60435972249,10.5067255658398,-18.4728593173573,-33.2023551323294
2.59216903900392,-19.9398628214072,3.29059582226577,-7.2653015583562,-4.15240599384099,8.72508184096636,2.85206143791757,105.712588643474,10.713453279992,-19.8713505010262,-34.2791864930662
2.58287294064263,-19.9663158954095,3.55004092489684,-7.2601998098768,-4.09898122643185,8.82347869137332,2.86263729406013,105.803330511553,10.9149455046325,-21.2304432605566,-35.3317833339868
2.58201094950654,-19.9915610660091,3.80927204593367,-7.25298173208925,-4.0457321818166,8.91996040684424,2.86756815985731,105.876509065892,11.1101790852153,-22.5397664003925,-36.3516826588507
2.58775406505673,-20.0153846787968,4.06784253329543,-7.24401884386619,-3.99299999223672,9.01457651876257,2.86755582471516,105.932127609558,11.298183728022,-23.7897623430593,-37.3309773480246
2.59924829053324,-20.0375873704354,4.3252940641272,-7.23369825653782,-3.94117224103165,9.10735329468375,2.86332432885047,105.970277956553,11.4780477528154,-24.9718467702899,-38.2624522266951
2.61654003683795,-20.0579848598341,4.58116189454455,-7.22241617202886,-3.89067782092424,9.19830238758561,2.85561054191022,105.991147552232,11.6489223773017,-26.0785258010231,-39.1396856593836
2.64046750545357,-20.0764085327236,4.83498047518022,-7.21057079737168,-3.84198086339647,9.28742917648482,2.84515565908747,105.995024585238,11.8100246232257,-27.1034695431976,-39.9571152206678
2.67252486855384,-20.0927058966265,5.08628945916067,-7.19855491149827,-3.79557385100573,9.37474050864513,2.83269797841411,105.982300992588,11.9606389503188,-28.0415438341785,-40.7100687872132
2.7147000644299,-20.1067409932726,5.3346400764349,-7.18674832713358,-3.75197004192265,9.46025162674381,2.81896719412221,105.953473339078,12.1001177309116,-28.8888042762219,-41.394764589954
2.76928646768791,-20.1183948574455,5.57960179325099,-7.17551048733146,-3.71169534611621,9.54399214036725,2.80468029282292,105.909141624898,12.2278806755119,-29.6424581560121,-42.008285214623
