Finger Velocity,Scap_X,Scap_Y,Scap_Z,Shoulder horiz abd-adduction,Shoulder flexion-extension,Shoulder internal-external rotation,elbow flexion-extension,forearm pronation-supination,wrist flexion-extension,wrist radial-ulnar deviation
0.824788837094329,-17.4604752108853,-25.3008806796139,5.98391961388752,-17.2785881436704,-23.9242881861241,-15.475666205667,59.0139279298183,-27.4939563820742,-25.7960728457556,2.36557679809334
1.04729720684694,-17.4513582746592,-25.3124383751356,5.98252522693032,-17.2875038515707,-23.9253232248366,-15.4822683868859,59.0203584867762,-27.433326575098,-25.9380355606065,2.52388452879838
1.2893001167389,-17.4434000891732,-25.3249691701644,5.97971137168482,-17.2958651352846,-23.9275863359416,-15.4872978312097,59.0278754977058,-27.3649890921433,-26.1508791436075,2.73532026198407
1.54901857773249,-17.4367915820579,-25.3384387387815,5.97527900009996,-17.303203996023,-23.9312461740159,-15.4904894759547,59.0363624600018,-27.2879486000213,-26.4403198928219,3.00360407882945
1.82465928317604,-17.4317142632315,-25.3528045881539,5.96901784416906,-17.3089854669955,-23.9364689381456,-15.491587921698,59.0456468387415,-27.201153452387,-26.8108991031051,3.33146809862757
2.11429897959659,-17.4283360587899,-25.3680163352362,5.96071014213201,-17.3126120150882,-23.9434118259474,-15.4903515856736,59.055496649417,-27.1035062555638,-27.2657315260667,3.72044849585922
2.41584135824978,-17.4268070631957,-25.3840160989982,5.95013503554901,-17.3134297686295,-23.9522156820617,-15.4865566610644,59.0656179973583,-26.9938768151116,-27.8062772336082,4.17069906145936
2.72700728042572,-17.4272552873644,-25.4007389862417,5.93707355094093,-17.3107365297759,-23.9629970179343,-15.480000828431,59.0756536835677,-26.8711175410938,-28.4321505115105,4.68083950252357
3.04534264044974,-17.4297824847064,-25.4181136414222,5.92131405228345,-17.3037914826839,-23.97583963078,-15.4705066796977,59.0851829773909,-26.7340813227851,-29.1409796886304,5.24785198141739
3.36823683589011,-17.4344601407435,-25.4360628295787,5.90265802251834,-17.2918264607486,-23.9907860917821,-15.4579248248851,59.0937226475016,-26.58164179209,-29.9283311215964,5.8670386734617
3.69294830461696,-17.4413257132466,-25.4545040285302,5.88092600592867,-17.2740585896848,-24.0078294015737,-15.4421366548182,59.1007293327729,-26.4127157828251,-30.7877086196368,6.53205107983932
4.01663509284294,-17.4503792085625,-25.4733500201833,5.85596352196497,-17.2497040788288,-24.0269051239824,-15.4230567293393,59.105603321062,-26.2262876683501,-31.7106362264114,7.23499828775235
4.33638909967539,-17.4615801772614,-25.492509486668,5.82764674641752,-17.2179928889743,-24.0478843098837,-15.4006347524271,59.107693784064,-26.0214351331222,-32.6868275762829,7.96663640581459
4.64927296304793,-17.4748452105998,-25.5118876297952,5.79588774678059,-17.1781839586886,-24.070567516282,-15.3748570859673,59.1063054877692,-25.7973558129777,-33.7044393307051,8.71663533908258
4.95235870583517,-17.4900460197904,-25.531386837516,5.76063905455599,-17.1295806225996,-24.0946802145169,-15.3457477454196,59.1007069590918,-25.5533941284924,-34.7503998714759,9.47391239777936
5.24276733884994,-17.5070081819083,-25.5509074168086,5.7218973601213,-17.0715458098401,-24.1198698657544,-15.3133688151456,59.09014004084,-25.2890675378745,-35.8107980244973,10.2270156789625
5.51770866212997,-17.525510636765,-25.5703484008005,5.67970612935996,-17.0035165766087,-24.1457049186837,-15.2778202193649,59.0738307135623,-25.0040913544378,-36.8713109524052,10.9645346880589
5.77452053889372,-17.5452860151213,-25.5896084241592,5.63415696801161,-16.9250175101289,-24.171675949166,-15.239238786374,59.0510010093613,-24.6984012154663,-37.9176465138974,11.6755122682504
6.01070694880953,-17.5660218680936,-25.6085866501492,5.58538959960615,-16.8356725460148,-24.1971991099059,-15.1977965485971,59.0208817939079,-24.3721722634836,-38.9359741716384,12.3498312600818
6.22397416443092,-17.5873628503776,-25.6271837267612,5.53359037387645,-16.7352147699761,-24.2216219879241,-15.1536982299394,58.9827261514563,-24.0258341200008,-39.9133202366351,12.9785515973402
6.41226443951771,-17.6089138878182,-25.6453027449082,5.47898928162211,-16.6234938292498,-24.2442318814324,-15.1071778872603,58.9358230751887,-23.6600808106373,-40.8379075589327,13.5541784315058
6.57378665149468,-17.6302443352684,-25.6628501659475,5.42185551585556,-16.5004806570703,-24.2642664110456,-15.0584946976719,58.8795111417633,-23.2758749511262,-41.6994259560908,14.0708486111242
6.70704340245314,-17.6508931045389,-25.6797366804905,5.36249168468598,-16.3662693104589,-24.2809262768237,-15.0079279185775,58.813191833398,-22.8744457278442,-42.4892266993168,14.5244303552505
6.81085415314307,-17.6703747139969,-25.6958779599788,5.30122684549394,-16.2210758336389,-24.2933898651526,-14.9557710895359,58.7363421621732,-22.4572804907014,-43.2004411237793,14.9125380830008
6.88437404113227,-17.6881861806024,-25.7111952686357,5.23840858844085,-16.0652341822917,-24.3008293041059,-14.9023255889463,58.6485262494948,-22.0261100895039,-43.8280288367126,15.2344701170714
6.92710811617572,-17.7038146423603,-25.7256159139448,5.17439444616925,-15.8991893709016,-24.3024274734814,-14.8478937011373,58.5494055209619,-21.5828883828839,-44.3687643810808,15.4910808527948
6.9389208110277,-17.7167455656214,-25.7390735253283,5.10954294263973,-15.7234881273536,-24.2973954084708,-14.7927713910984,58.4387471974652,-21.1297665903093,-44.8211725237705,15.6846010441729
6.92004055238039,-17.7264713599648,-25.7515081604657,5.04420461532649,-15.5387674453839,-24.2849895042205,-14.737241025807,58.3164308011926,-20.6690633212644,-45.1854221305185,15.8184205912196
6.87105950200901,-17.7325001974481,-25.7628662446416,4.97871334960004,-15.345741505801,-24.2645279384174,-14.6815643197869,58.1824524506692,-20.2032311998771,-45.4631876940788,15.8968481559681
6.79292849989745,-17.7343648161432,-25.7731003496353,4.91337835084725,-15.1451874828017,-24.2354057797929,-14.6259758093597,58.0369267876839,-19.7348210159628,-45.6574866829458,15.9248613894967
6.68694735599504,-17.7316310809898,-25.7821688166284,4.84847704919652,-14.9379307580978,-24.1971083338214,-14.5706771644925,57.8800864534043,-19.2664442880959,-45.7725002437209,15.9078605431659
6.55475070150796,-17.7239060771345,-25.7900352262876,4.78424918610957,-14.7248300349583,-24.1492223796389,-14.5158326237246,57.7122791033759,-18.8007350408271,-45.8133843026609,15.8514366704701
6.39828965942226,-17.710845521086,-25.796667722032,4.72089227499591,-14.5067627836439,-24.0914450606388,-14.46156578828,57.5339620163818,-18.3403114995715,-45.7860775499157,15.7611634987721
6.21980962096419,-17.6921602927808,-25.8020381999624,4.65855856306866,-14.2846113694694,-24.0235902946558,-14.4079579431665,57.3456944090713,-17.8877383123792,-45.6971120581565,15.6424195253242
6.02182441152827,-17.6676219165138,-25.8061213886029,4.59735355342268,-14.0592501268548,-23.9455926616257,-14.3550479953313,57.1481276181993,-17.4454898286689,-45.5534314083189,15.5002442199372
5.80708708512882,-17.6370668496948,-25.8088938505854,4.53733608074735,-13.8315335589654,-23.857508803727,-14.3028340418374,56.9419933575048,-17.0159149030443,-45.3622202121201,15.3392296433987
5.57855748632915,-17.6003994742481,-25.8103329452912,4.47851987690165,-13.6022857719472,-23.7595164334845,-14.251276511694,56.7280902979034,-16.6012036453583,-45.1307478755318,15.1634465244138
5.33936654546671,-17.5575937246946,-25.8104157961618,4.42087651600617,-13.3722912000216,-23.651911088692,-14.2003027645357,56.5072692572561,-16.2033565063766,-44.8662284050088,14.9764020368877
5.09277700807817,-17.508693328189,-25.8091183091285,4.36433959028379,-13.1422866435143,-23.5351008007136,-14.1498129735733,56.2804173192991,-15.8241560746583,-44.5756971035523,14.781025272238
4.84213992785044,-17.4538106735985,-25.8064142893044,4.30880993302328,-12.9129546253965,-23.4095988580613,-14.099687063654,56.0484412330286,-15.4651419642599,-44.2659042075461,14.5796757183525
4.59084577477783,-17.3931243669132,-25.8022747015497,4.25416167164337,-12.6849180718961,-23.2760148545538,-14.049792416624,55.8122504772352,-15.1275891865002,-43.9432249137786,14.3741698848797
4.34226846467881,-17.3268755658516,-25.7966671171109,4.20024886485653,-12.4587363338106,-23.1350442156691,-13.9999920026719,55.5727404075319,-14.8124904083066,-43.6135848412576,14.1658214592732
4.0997001147825,-17.2553632150959,-25.7895553846588,4.14691245902817,-12.2349025730308,-22.9874564028406,-13.9501525613544,55.330775924442,-14.5205424903446,-43.282399744642,13.9554909215948
3.86627410705121,-17.1789383245736,-25.7808995617522,4.09398729358259,-12.01384252643,-22.834082007113,-13.9001524498019,55.0871760983278,-14.2521376608399,-42.9545282165015,13.7436412635439
3.64487449639902,-17.097997447241,-25.7706561426418,4.04130889355193,-11.7959146213131,-22.675798961086,-13.8498887973837,54.842700154837,-14.0073596158704,-42.6342361545726,13.5303972277387
3.43803149074815,-17.0129755205323,-25.7587786173699,3.98871980728912,-11.5814113638205,-22.5135181191479,-13.799283646479,54.5980351676778,-13.7859847566812,-42.3251719008559,13.3156061949007
3.24780621368263,-16.9243382372586,-25.7452183896646,3.93607527782012,-11.3705618703464,-22.3481684784971,-13.7482888091312,54.3537857335578,-13.5874886977366,-42.0303511554938,13.0988994045311
3.07567341602231,-16.8325741076856,-25.7299260638055,3.88324807701428,-11.1635353739528,-22.1806823354697,-13.6968892265209,54.1104658261582,-13.4110581097678,-41.7521509998204,12.8797525454749
2.92241742773717,-16.7381863663479,-25.7128530854739,3.83013238150845,-10.9604455183657,-22.0119806896123,-13.6451046837455,53.8684929472555,-13.2556078744323,-41.4923126035632,12.6575449106416
2.78806217167096,-16.64168486783,-25.6939536937355,3.77664662394177,-10.761355250731,-21.8429592166355,-13.5929898072599,53.6281846143701,-13.1198033833089,-41.2519524340665,12.4316163491561
2.67185707569624,-16.5435781087597,-25.673187115221,3.72273530569806,-10.5662821339833,-21.6744751262221,-13.5406323551497,53.3897571453782,-13.002087607513,-41.0315820314798,12.201321248768
2.57233429161409,-16.444365510458,-25.6505199099354,3.66836980193404,-10.3752039106148,-21.5073351994405,-13.4881498969429,53.1533266239545,-12.9007123413359,-40.8311366303669,11.9660787754291
2.48743877955598,-16.3445300962659,-25.625928362884,3.61354822444773,-10.1880641562754,-21.3422852642238,-13.4356850621305,52.9189118611772,-12.81377284384,-40.6500130202694,11.7254185852427
2.41471583347896,-16.2445316945655,-25.5994008084468,3.55829443542233,-10.0047778672275,-21.1800013190502,-13.3833996048223,52.6864391138967,-12.7392449894536,-40.4871169770708,11.479021216125
2.35152736083506,-16.1448007887251,-25.5709397756242,3.50265632798583,-9.82523683870301,-21.0210824580233,-13.3314675787144,52.4557482829154,-12.6750239804796,-40.3409203390484,11.2267523877781
2.29526403974068,-16.0457331181959,-25.5405638511389,3.44670350779184,-9.64931471824315,-20.8660456875525,-13.2800679425837,52.2266002941448,-12.6189636556977,-40.209527351996,10.9686905038411
2.24352599656214,-15.9476851133335,-25.5083091727812,3.39052452170985,-9.47687165952555,-20.7153226574532,-13.2293769296693,51.9986853621557,-12.5689154393075,-40.0907492872702,10.7051467579457
2.19425604062873,-15.8509702232882,-25.4742304858613,3.33422378387172,-9.30775854991765,-20.5692582613347,-13.1795605217331,51.7716318450089,-12.5227660018424,-39.982185602158,10.4366773897678
2.14582146877541,-15.7558561742295,-25.4384017185656,3.27791834570302,-9.14182082469221,-20.4281110009084,-13.1307673699982,51.5450154197239,-12.478472746131,-39.8813091757277,10.1640878076545
2.09704924461029,-15.662563176204,-25.4009160543156,3.22173464727558,-8.97890190251741,-20.2920549648946,-13.0831224936364,51.3183683408757,-12.4340963004997,-39.7855525502142,9.88842847546656
2.04722378576024,-15.5712630812634,-25.3618854990865,3.16580537618015,-8.81884628382494,-20.1611832474139,-13.0367220556017,51.0911885943652,-12.3878293158382,-39.6923917404604,9.61098264301731
1.99605739631965,-15.4820794812138,-25.3214399595744,3.11026654930709,-8.6615023564194,-20.0355126178966,-12.9916294648061,50.862948822862,-12.3380210243442,-39.5994240923898,9.33324618805398
1.94364202417128,-15.3950887177519,-25.2797258661214,3.05525491963063,-8.50672495474546,-19.9149892493634,-12.9478729870726,50.6331049684427,-12.283197206622,-39.504436888619,9.05690005274556
1.89038883856382,-15.3103217591043,-25.2369043939856,3.00090578803641,-8.35437771383345,-19.7994953145099,-12.9054449706017,50.4011046383574,-12.222075403162,-39.405463902707,8.78377601996122
1.83696000409893,-15.2277668759586,-25.1931493574744,2.94735126565177,-8.2043352388806,-19.68885627181,-12.8643027112758,50.1663952431728,-12.153575374897,-39.3008278560178,8.5158168922569
1.7841954536737,-15.1473730283445,-25.1486448712565,2.8947189886737,-8.05648507831695,-19.5828486845965,-12.8243709066151,49.9284319811697,-12.0768249562728,-39.1891676649187,8.25503249279479
1.73303664766227,-15.0690538582806,-25.103582888161,2.8431312445633,-7.91072945324595,-19.4812084363073,-12.7855455796504,49.6866857524324,-11.9911615534936,-39.0694503823649,8.00345325483013
1.68444930569912,-14.9926921735333,-25.0581607290235,2.79270443395244,-7.76698667478471,-19.3836392143514,-12.7476992935016,49.4406510866834,-11.8961296243531,-38.9409687268847,7.76308343406388
1.63934783763384,-14.9181448066907,-25.0125787149881,2.74354877011768,-7.62519218473194,-19.2898211272203,-12.7106874182839,49.1898541653566,-11.7914745380668,-38.8033259596505,7.53585609487027
1.59852543513857,-14.8452477399282,-24.9670379959308,2.6957681078466,-7.48529918437092,-19.1994192973615,-12.6743551534703,48.9338610105677,-11.6771332587122,-38.6564105519298,7.32359193821398
1.56259504113758,-14.7738213967562,-24.9217386422939,2.64945979593581,-7.34727885852681,-19.1120922474355,-12.6385449588412,48.6722858969822,-11.5532223306918,-38.5003635451054,7.12796374307082
1.53194702126522,-14.7036760140423,-24.8768780350281,2.60471446213865,-7.21112023990474,-19.0274998834866,-12.6031040161258,48.4048000126447,-11.4200236706254,-38.3355417252739,6.95046771825853
1.50672865528006,-14.6346170173321,-24.8326495541823,2.56161566458224,-7.07682978100534,-18.9453108838172,-12.5678913386483,48.1311403520736,-11.2779686785293,-38.1624796894946,6.79240249029019
1.48684823168259,-14.5664503284666,-24.7892415363185,2.52023937584539,-6.94443070639409,-18.865209328286,-12.532784171499,47.8511187754658,-11.1276211577407,-37.9818535420075,6.65485588879645
1.47200290249646,-14.498987537469,-24.746836448629,2.48065329928974,-6.8139622111605,-18.7869004446114,-12.4976833804963,47.5646311185164,-10.9696594703448,-37.794448344191,6.53869920689207
1.461725525402,-14.432050872055,-24.7056102152143,2.44291604604249,-6.68547855737259,-18.7101153968989,-12.4625176078712,47.2716661896551,-10.8048582674153,-37.601130650053,6.44458822081448
1.45544272148044,-14.3654778985522,-24.6657316276531,2.40707622155532,-6.55904810595839,-18.6346150863255,-12.4272460606702,46.9723144422552,-10.6340700609671,-37.4028266237919,6.37296992521597
1.45253519391605,-14.2991258876104,-24.6273617752231,2.37317148125149,-6.43475231329861,-18.5601929677986,-12.3918598771823,46.6667760590431,-10.4582068796224,-37.2005054754601,6.32409367129337
1.45239213019682,-14.2328757776942,-24.5906534367936,2.34122761508255,-6.31268471941698,-18.4866769103569,-12.3563820792125,46.3553681436631,-10.278222254551,-36.9951673695648,6.29802522963141
1.45445369944858,-14.1666356704526,-24.5557503843344,2.31125771275274,-6.19294994941685,-18.4139301493067,-12.3208661676433,46.0385306905322,-10.0950937656316,-36.7878346396133,6.29466229695804
1.45823840310778,-14.1003437955096,-24.5227865568859,2.28326144937842,-6.0756627344166,-18.3418513989872,-12.2853934633733,45.7168310010461,-9.90980632144519,-36.5795450817765,6.3137501285441
1.46335460007647,-14.0339708877155,-24.4918850747219,2.25722452033106,-5.96094693426177,-18.2703742152265,-12.2500693394371,45.3909662274073,-9.72333627830668,-36.3713462234065,6.35489624339855
1.46949749965345,-13.9675219264882,-24.4631570772669,2.2331182467678,-5.84893451968395,-18.1994657109066,-12.2150185318682,45.0617637501669,-9.53663645311985,-36.1642896716614,6.4175834475013
1.47643421365836,-13.9010371934149,-24.4367003858377,2.21089936984806,-5.7397644543951,-18.1291247327033,-12.1803797533845,44.7301791301407,-9.35062206099543,-35.9594248841735,6.50118071197561
1.48398018823849,-13.8345926100249,-24.4125980143739,2.19051005000213,-5.63358141213549,-18.0593796019482,-12.1462998616666,44.3972914203122,-9.16615761027792,-35.7577919377571,6.6049517115434
1.49197064639251,-13.768299323333,-24.3909165778065,2.17187808577307,-5.53053427015152,-17.9902855109849,-12.1129278504527,44.0642956794345,-8.98404481295867,-35.5604130800112,6.72806106261079
1.50023067487586,-13.7023025143339,-24.3717046752524,2.15491736362177,-5.43077433725249,-17.9219216524995,-12.080408936553,43.7324925949096,-8.80501161100568,-35.3682830156519,6.86957849246572
1.50854733491208,-13.636779416041,-24.3549913480983,2.13952854559199,-5.33445329911123,-17.8543881461322,-12.0488790093822,43.4032751958267,-8.6297024674158,-35.1823580072253,7.02848132110002
1.51664668132131,-13.5719365442233,-24.3407847264062,2.12559999615199,-5.2417208910617,-17.7878028164548,-12.0184596893716,43.0781127173683,-8.45867011476064,-35.0035439812095,7.20365575060416
1.52417786108825,-13.5080061662292,-24.3290709792216,2.11300894331665,-5.15272233209463,-17.7222978711955,-11.9892542031129,42.7585317678362,-8.29236898956519,-34.8326839471709,7.39389753869949
1.53070558798961,-13.4452420603119,-24.319813676279,2.10162286304297,-5.06759556812917,-17.6580165287004,-11.9613442252659,42.4460950531365,-8.13115060526648,-34.6705451556,7.59791268187209
1.53571135515804,-13.3839146473608,-24.3129536522309,2.09130107022021,-4.9864683792451,-17.5951096461461,-11.9347877669969,42.1423780311162,-7.97526112087493,-34.5178065073617,7.81431874548847
1.53860287616462,-13.3243056059665,-24.3084094417144,2.0818964937899,-4.90945540956128,-17.5337324012236,-11.9096181199663,41.8489439930731,-7.82484133318474,-34.3750467522753,8.04164745139219
1.53873055080347,-13.2667021074902,-24.3060783259865,2.07325760703357,-4.83665518396971,-17.4740410787928,-11.8858438042022,41.567318188664,-7.67992924918349,-34.2427339748901,8.27834907119261
1.53540930623938,-13.2113908277434,-24.305838001528,2.06523047722859,-4.76814718457148,-17.4161900114788,-11.86344942252,41.2989617068464,-7.54046528695251,-34.1212167894555,8.52279908280415
1.52794398303577,-13.1586519043765,-24.3075488502157,2.0576608927205,-4.7039890716187,-17.3603287202673,-11.8423972929448,41.0452458851383,-7.40630002448631,-34.0107175789951,8.77330743569253
1.51565648298396,-13.108753013937,-24.3110567611511,2.05039652086023,-4.6442141479965,-17.3065992982718,-11.822629710865,40.8074280348577,-7.27720428857018,-33.9113280174942,9.02813063811286
1.49791310400097,-13.0619437408357,-24.3161964268474,2.0432890476852,-4.58882918002279,-17.2551340784207,-11.8040716821594,40.5866292426116,-7.15288127029156,-33.8230069958369,9.28548672142819
1.47415078097704,-13.0184504030576,-24.3227950121804,2.03619625030142,-4.53781269733632,-17.2060536233147,-11.7866339672096,40.3838149469026,-7.0329802820721,-33.7455809266837,9.5435729484231
1.44390126554742,-12.9784714861821,-24.3306760750965,2.02898395698342,-4.4911138986991,-17.1594650707187,-11.7702162847426,40.1997789052091,-6.91711173480538,-33.6787462551813,9.8005859279029
1.40681256855798,-12.9421738177498,-24.3396636056107,2.02152785908007,-4.4486522872958,-17.115460858935,-11.7547105436109,40.0351310718364,-6.80486290640935,-33.6220738971265,10.0547436090125
1.36266723564492,-12.909689588959,-24.3495860455494,2.01371515144922,-4.41031814701507,-17.0741178421747,-11.7400039960297,39.8902898060706,-6.69581408616277,-33.5750152987424,10.3043084870932
