Finger Velocity,Scap_X,Scap_Y,Scap_Z,Shoulder horiz abd-adduction,Shoulder flexion-extension,Shoulder internal-external rotation,elbow flexion-extension,forearm pronation-supination,wrist flexion-extension,wrist radial-ulnar deviation
0.39710730451242,-16.3125669971324,-15.335294827649,8.99186203506295,-14.622488121233,-37.8950330954955,-15.3158943283368,59.6894273436922,-24.4096831729837,-23.2613484989947,-3.26142192068235
0.486441708487497,-16.311263079955,-15.2927716409823,8.89758294821642,-14.5561502975498,-37.8693502386942,-15.2901809292883,59.5988430941441,-24.2699460933091,-23.2278243766549,-3.40390664331539
0.599054233347519,-16.3077096076965,-15.2494405392902,8.79841370678516,-14.4817539375196,-37.8300389984171,-15.2579008377211,59.4982896810479,-24.1240212608333,-23.1791160460058,-3.56415031559121
0.732410448650111,-16.3017333203284,-15.2053660776366,8.69503220088314,-14.3992332964872,-37.7756870699609,-15.2183703604414,59.3870584826977,-23.9725702238097,-23.1154027703433,-3.7408086286487
0.884466240605268,-16.2931710079455,-15.1606069889004,8.58819631500233,-14.3085879434405,-37.7049295104611,-15.1709236712344,59.2644225416773,-23.8163162345309,-23.0372014541266,-3.93216071681825
1.05358029622155,-16.2818687235853,-15.115212562238,8.47872967052306,-14.209878716139,-37.6164734479525,-15.114924772315,59.1296343785962,-23.6560321990991,-22.9453645625779,-4.13613666548434
1.23833705716611,-16.2676804802662,-15.0692193547558,8.36750533270738,-14.1032213127887,-37.5091222481936,-15.0497794084711,58.9819235610286,-23.4925278908586,-22.8410643909602,-4.35035836932389
1.43740985171772,-16.2504664780794,-15.0226483823137,8.25542791346437,-13.9887777420065,-37.3817984496204,-14.974946780692,58.8204942758256,-23.326636870763,-22.7257632074254,-4.57219327387972
1.64947525776102,-16.2300909363796,-14.975502895798,8.14341457019484,-13.8667459942055,-37.2335648043447,-14.8899509373759,58.6445231482038,-23.1592035191678,-22.6011698120328,-4.79881976515658
1.87316555277665,-16.2064196344805,-14.9277667966708,8.03237544803069,-13.7373484203099,-37.063642822621,-14.7943917345589,58.4531575068678,-22.9910704847116,-22.4691841410721,-5.02730213829564
2.10704645914341,-16.1793172889729,-14.8794036902222,7.92319413755995,-13.6008193965034,-36.8714283037866,-14.687955248138,58.2455142304517,-22.8230667297791,-22.331832502568,-5.2546723032323
2.3496113654202,-16.1486449136741,-14.830356527955,7.81670872523228,-13.4573929113364,-36.6565034382791,-14.5704234969045,58.0206792620574,-22.6559962523731,-22.1911966885343,-5.47801483301167
2.59928637607828,-16.1142573171316,-14.7805477599284,7.71369400045189,-13.3072907319102,-36.4186451721839,-14.4416833053405,57.7777078707067,-22.4906275265542,-22.0493404990494,-5.69455172692203
2.8544425482975,-16.0760008921062,-14.7298799067653,7.61484534946821,-13.1507117837085,-36.1578296310699,-14.3017341032981,57.515625765404,-22.3276837211343,-21.9082371815848,-5.90172332535338
3.11341285550888,-16.0337118418506,-14.6782364680262,7.52076480701723,-12.9878233064977,-35.8742325032078,-14.1506944219424,57.2334312051173,-22.1678338041948,-21.7697010314895,-6.09726210000291
3.3745120980953,-15.987214969329,-14.6254831041849,7.43194965056411,-12.8187542277448,-35.5682253869952,-13.9888068003053,56.930098275067,-22.0116847034681,-21.6353259722577,-6.27925649988749
3.63605837660002,-15.9363231275995,-14.5714690568872,7.34878381420677,-12.6435910425918,-35.240368215062,-13.8164407746608,56.604581498504,-21.8597747504839,-21.5064333787145,-6.44620261833256
3.89639498096853,-15.8808373926376,-14.5160288005547,7.27153228178443,-12.4623763331052,-34.8913979748309,-13.6340936033467,56.2558219131421,-21.7125686594598,-21.3840307947767,-6.59704209012868
4.15391170651865,-15.8205479754417,-14.4589839447305,7.20033850548159,-12.2751099226169,-34.5222140464465,-13.4423884023306,55.8827546774538,-21.5704542649034,-21.2687826073926,-6.731185260265
4.40706472805901,-15.7552358422038,-14.400145429631,7.13522479679887,-12.0817525523832,-34.133860570549,-13.2420694432265,55.4843182162499,-21.4337411746184,-21.1609932257584,-6.84851923536304
4.65439427428445,-15.6846749659238,-14.3393160743185,7.07609555302192,-11.8822318824845,-33.7275063412812,-13.0339944941651,55.0594648846607,-21.3026614064249,-21.0606029008379,-6.94940091668242
4.89453946087037,-15.6086350970291,-14.2762935431551,7.02274311088817,-11.6764505463729,-33.3044227958957,-12.8191242499391,54.6071731184639,-21.1773719880543,-20.9671959659819,-7.03463555143579
5.12624977129456,-15.5268849194492,-14.2108737891154,6.97485595684516,-11.464295921507,-32.8659607397187,-12.5985090766219,54.1264610294803,-21.0579594227981,-20.8800209268408,-7.10544177001705
5.348392823282,-15.4391954538634,-14.1428550135699,6.9320289701241,-11.245651215841,-32.4135264984233,-12.3732734605747,53.6164013806718,-20.9444458524438,-20.7980214781856,-7.16340448274993
5.55995822610886,-15.3453435793171,-14.0720421551574,6.89377533321211,-11.0204074146042,-31.9485582209044,-12.1445986807955,53.0761378306452,-20.8367966763787,-20.7198772192234,-7.21041734025463
5.76005751682613,-15.2451155631849,-13.9982518888322,6.85953971671788,-10.788475589765,-31.4725030579542,-11.9137043051994,52.5049022791106,-20.734929320399,-20.6440525926485,-7.24861670850862
5.94792035588515,-15.1383105123361,-13.9213180825298,6.82871233335162,-10.5497990540498,-30.9867959084879,-11.6818291439908,51.9020330833211,-20.6387228021617,-20.5688523721676,-7.2803093007184
6.12288735618415,-15.0247436817248,-13.8410976251502,6.80064345826216,-10.3043648490986,-30.4928403534233,-11.4502122812132,51.2669938544191,-20.5480277118256,-20.4924818654972,-7.30789575501138
6.28440010357636,-14.9042495987606,-13.7574765073779,6.77465802860147,-10.052214093197,-29.9919922899149,-11.2200747554435,50.5993924817526,-20.4626762119439,-20.413109896488,-7.3337925394586
6.43198908929411,-14.7766849819143,-13.6703760067887,6.75006996274747,-9.79345077187871,-29.4855466435067,-10.9926023814079,49.8989999709996,-20.3824916612163,-20.3289325917978,-7.36035459199644
6.56526040297612,-14.6419314493018,-13.5797588001222,6.7261958787767,-9.52824862863459,-28.9747273832563,-10.7689301085389,49.1657686165729,-20.3072974853409,-20.2382360321312,-7.38980105024072
6.6838821172229,-14.4998980265608,-13.4856347984669,6.70236794074005,-9.25685589993306,-28.4606809052648,-10.5501282118801,48.3998489631368,-20.2369249557847,-20.1394559385386,-7.42414627991666
6.78757132120155,-14.3505234725486,-13.3880664777128,6.67794561582459,-8.97959773513449,-27.944472693983,-10.3371905092908,47.6016049565908,-20.1712195929544,-20.0312327439127,-7.4651381663808
6.87608272569969,-14.1937784462295,-13.2871734617472,6.65232618106881,-8.69687624132545,-27.4270870286438,-10.1310246929865,46.7716266565867,-20.1100459810409,-19.9124606331324,-7.5142053131369
6.94919966384723,-14.0296675388721,-13.1831361147945,6.62495387183188,-8.40916818762835,-26.9094293811393,-9.93244475046206,45.9107398887526,-20.0532908621841,-19.7823293905516,-7.57241444124556
7.00672815459426,-13.8582311926108,-13.076197915542,6.59532761322257,-8.11702048605356,-26.3923310542149,-9.74216533612914,45.0200122536674,-20.0008644625204,-19.6403581196972,-7.6404389560812
7.04849448957344,-13.6795475195316,-12.9666664198519,6.56300731794921,-7.82104363416949,-25.8765555361571,-9.56079785584396,44.1007549770393,-19.9527000891582,-19.4864200612201,-7.71853936840858
7.07434656265345,-13.4937340241297,-12.8549126690533,6.52761876883689,-7.521903362955,-25.3628060029028,-9.38884796111125,43.1545201808628,-19.9087521201359,-19.320757842391,-7.80655601190774
7.08415890326287,-13.300949215928,-12.7413689617043,6.48885713299229,-7.22031078609771,-24.8517333857707,-9.22671413450352,42.1830932799022,-19.8689925790476,-19.1439885767126,-7.90391426520054
7.07784111901956,-13.1013940802711,-12.6265249674067,6.4464891783647,-6.91701139210671,-24.3439444505906,-9.07468708786441,41.1884803604766,-19.833406533543,-18.957098317583,-8.00964225274166
7.05534921947501,-12.8953133582723,-12.5109222088419,6.40035427986446,-6.61277324801542,-23.8400094082272,-8.93294977928234,40.1728905734246,-19.8019865822153,-18.7614254888007,-8.12240074899418
7.01669909758263,-12.6829965745833,-12.3951469690112,6.35036430709395,-6.30837478576367,-23.3404686920979,-8.80157796311513,39.1387137612147,-19.7747267035733,-18.5586331241714,-8.24052470783344
6.96198130152849,-12.4647787428824,-12.2798217055629,6.29650247879341,-6.00459252265521,-22.8458386742561,-8.68054130123011,38.0884937314412,-19.7516157376371,-18.350670085852,-8.36207546389803
6.89137614455784,-12.2410406710893,-12.1655950893115,6.23882125577787,-5.70218903686319,-22.3566162212858,-8.56970517006079,37.0248977787068,-19.7326307546033,-18.1397218754648,-8.48490223441167
6.80516817688438,-12.0122087811215,-12.0531308389299,6.17743933151229,-5.40190148879809,-21.8732820954703,-8.468833383183,35.9506832375176,-19.7177305370512,-17.9281521419634,-8.60671115155223
6.70375907929092,-11.7787543537757,-11.9430955975228,6.112537771642,-5.10443095347247,-21.3963032772274,-8.37759209627113,34.8686620085398,-19.7068493702005,-17.7184364682922,-8.72513972785467
6.58767812619911,-11.5411921099783,-11.8361461811895,6.04435535129619,-4.81043280498851,-20.9261343204684,-8.29555515953809,33.7816641205592,-19.699891308305,-17.5130904577911,-8.83783441140658
6.45758949748551,-11.3000780457416,-11.7329166109142,5.9731831407781,-4.5205083669666,-20.4632178578945,-8.22221113489162,32.692501450351,-19.6967250642998,-17.3145945316388,-8.94252870546442
6.31429588215218,-11.0560064510782,-11.6340053970364,5.89935839474723,-4.2351980086219,-20.0079843626745,-8.15697211366837,31.6039327102365,-19.6971796444212,-17.1253181627227,-9.03711920302188
6.15873800156078,-10.8096060666467,-11.5399635585594,5.82325780523877,-3.95497582250275,-19.5608512691291,-8.09918436644901,30.5186307289236,-19.7010408154624,-16.9474464437291,-9.11973685719265
5.99198987409054,-10.5615353688392,-11.4512838188418,5.74529018439986,-3.68024596478282,-19.1222215726287,-8.0481407317786,29.4391529058529,-19.7080484616863,-16.7829118426606,-9.18881093251222
5.81524983654821,-10.3124770219737,-11.3683913377894,5.66588865145352,-3.41134067493157,-18.6924820603718,-8.00309450926222,28.3679155291715,-19.717894876989,-16.6333337140251,-9.24312338927664
5.62982752156483,-10.0631315882673,-11.2916362425211,5.58550241445941,-3.14851992648391,-18.2720013497515,-7.96327448235361,27.3071724327961,-19.7302240443754,-16.4999676697867,-9.28185190766939
5.43712715717888,-9.81421063446734,-11.2212881211148,5.50458826290733,-2.89197260481526,-17.8611279164295,-7.92790058774756,26.2589982507752,-19.7446319597468,-16.3836663713908,-9.30460028897061
5.23862769890796,-9.56642941203046,-11.1575325537548,5.4236019197217,-2.64181906985879,-17.4601882794426,-7.89619969518346,25.2252763277113,-19.7606680420504,-16.2848527536438,-9.31141552044484
5.03586042124221,-9.32049931182793,-11.1004696737493,5.34298943559897,-2.39811494422717,-17.0694854797883,-7.86742096463278,24.2076911755935,-19.7778376348801,-16.2035061613258,-9.30279132873592
4.83038468116052,-9.07712030401339,-11.0501146791687,5.26317883895618,-2.16085596521352,-16.6892979455558,-7.84085029062352,23.2077252335242,-19.7956055585034,-16.1391613833465,-9.27965855224466
4.62376261842211,-8.83697357083361,-11.0064001570792,5.18457227568256,-1.92998374338195,-16.3198787856901,-7.81582340604018,22.2266595858278,-19.8134006361109,-16.0909201209569,-9.2433631109456
4.41753357430574,-8.6007145278447,-10.9691800389596,5.10753887954182,-1.70539227284646,-15.9614555037182,-7.79173728437399,21.2655782245913,-19.8306211137808,-16.0574740393396,-9.19563272080426
4.21318899132603,-8.36896641022165,-10.9382349787491,5.03240860372324,-1.48693503482849,-15.6142300799573,-7.76805954034444,20.325375403595,-19.8466409292876,-16.0371382336702,-9.13853378429636
4.01214850154454,-8.14231457692882,-10.9132789327978,4.95946721721857,-1.27443252764689,-15.2783793394736,-7.74433558444771,19.4067656194364,-19.8608168471953,-16.0278936927487,-9.07442009801978
3.81573782233497,-7.92130165564414,-10.8939667199438,4.88895262919118,-1.06768004902458,-14.9540555042618,-7.72019334803347,18.5102957713903,-19.8724965338411,-16.0274371646704,-9.00587515896553
3.62516896015773,-7.70642361497428,-10.879902344218,4.82105265353988,-0.866455557886402,-14.6413868235975,-7.69534547233431,17.6363590947664,-19.8810276653419,-16.0332367183821,-8.93564991993434
3.44152308267927,-7.49812680978969,-10.8706478674255,4.75590426748913,-0.670527454439556,-14.3404781872375,-7.66958894594288,16.7852105279474,-19.8857681366723,-16.042591254079,-8.86659784037895
3.26573626930235,-7.29680600473391,-10.8657326233027,4.69359435540298,-0.479662133562293,-14.0514116479359,-7.64280226842824,15.9569832446585,-19.886097381989,-16.0526922590048,-8.80160900137717
3.09858820642565,-7.10280334469053,-10.8646625719426,4.63416186539936,-0.293631180267273,-13.7742468055264,-7.61494030116548,15.1517061402212,-19.8814287400874,-16.0606862485852,-8.74354490229317
2.9406937771852,-6.91640821270101,-10.8669296050287,4.57760124527088,-0.112218084267191,-13.5090210301394,-7.586027035199,14.3693220896528,-19.8712227118842,-16.0637365544411,-8.69517534730959
2.79249742835518,-6.73785789682651,-10.8720206280522,4.52386696978411,0.0647756467153135,-13.2557495264352,-7.55614656206149,13.6097067911515,-19.8550008629956,-16.0590833607055,-8.65911859614423
2.65427019862168,-6.56733897619171,-10.8794262619843,4.47287892875837,0.237525097818039,-13.0144252645611,-7.52543258282022,12.8726879719296,-19.8323600281774,-16.0441010967105,-8.6377857229004
2.52610937139417,-6.40498932910622,-10.8886490215488,4.4245284207672,0.406177409069426,-12.7850188256468,-7.49405683957799,12.158064671385,-19.802986381743,-16.0163524494904,-8.63332991887081
2.40794086219498,-6.25090065912195,-10.8992108398963,4.37868449594865,0.570848212266714,-12.5674782258479,-7.46221690414857,11.4656262407742,-19.7666688574535,-15.9736383579882,-8.64760132299235
2.2995246319325,-6.10512142782212,-10.9106598214087,4.33520041214398,0.731619147177553,-12.3617287875346,-7.43012380438156,10.795170622158,-19.7233113419709,-15.9140433905675,-8.68210790216564
2.2004635762032,-5.9676600791493,-10.9225761181033,4.29392000271046,0.888536525952309,-12.1676731159104,-7.39798999738745,10.1465214044854,-19.6729430345007,-15.8359759150331,-8.73798291306457
2.11021640792672,-5.83848844241422,-10.9345768430981,4.25468379057967,1.04161117107454,-11.9851912164461,-7.3660181990372,9.51954311059207,-19.6157263653206,-15.7382025030494,-8.81595947672687
2.02811496535749,-5.71754521046683,-10.9463199572838,4.21733471359686,1.19081941127807,-11.8141407604871,-7.33439154425913,8.91415415270978,-19.5519619022539,-15.6198761019694,-8.91635272014272
1.95338611277612,-5.60473940370922,-10.9575070905994,4.18172334840789,1.33610518748487,-11.6543574818402,-7.3032654833253,8.3303369129643,-19.4820897562307,-15.4805576192674,-9.03904979841962
1.88517798189062,-5.49995374516305,-10.9678852839479,4.14771253549852,1.4773831949321,-11.5056556716702,-7.2727617222489,7.76814446494496,-19.4066871313268,-15.320230628527,-9.18350797193434
1.8225898054095,-5.40304788185255,-10.9772476599899,4.11518131945134,1.61454296114966,-11.3678287335156,-7.24296440038302,7.22770355124935,-19.3264618414958,-15.1393088915217,-9.34876081888621
1.76470412816243,-5.31386139232059,-10.9854330518307,4.08402812930353,1.74745372789919,-11.2406497620049,-7.21391857447645,6.70921356079858,-19.2422418117234,-14.9386363184233,-9.5334326152022
1.71061984766419,-5.2322165229787,-10.9923246405056,4.05417313665458,1.87596997247912,-11.1238721145032,-7.18563095307965,6.21294139754927,-19.1549607719032,-14.7194789099843,-9.73576087794277
1.65948439717441,-5.15792060161442,-10.997847676396,4.02555974523348,1.99993737890666,-11.0172299529221,-7.15807270486633,5.73921228873371,-19.0656405196765,-14.4835082239921,-9.95362698269741
1.61052344490261,-5.09076808616329,-11.0019663850751,3.99815518550716,2.1191990582465,-10.9204387433453,-7.13118405652048,5.28839673764985,-18.9753702609154,-14.2327760546524,-10.1845945755378
1.56306669659233,-5.03054222002188,-11.0046801823563,3.97195021197634,2.23360181869154,-10.8331957136815,-7.10488030922611,4.86089397860521,-18.8852836280372,-13.9696803033185,-10.4259552158859
1.51656868058649,-4.97701628065228,-11.0060193444281,3.94695792897173,2.3430022958897,-10.755180283218,-7.07905884656195,4.45711243639557,-18.7965340281887,-13.6969223800723,-10.6747803741969
1.47062368911949,-4.92995442519002,-11.0060402952678,3.9232118012731,2.44727277051366,-10.6860544919452,-7.05360668614853,4.07744782444831,-18.7102689882113,-13.4174568394521,-10.9279786276366
1.42497429163321,-4.88911215468517,-11.0048206835027,3.90076293531455,2.54630652246945,-10.625463471026,-7.02840814115017,3.72225962970973,-18.6276041464713,-13.1344342901957,-11.1823566721728
1.37951300026009,-4.85423643717443,-11.0024544233211,3.87967674157414,2.64002259696114,-10.5730360074916,-7.00335219777285,3.39184682589075,-18.5495975060148,-12.8511389123222,-11.4346826108855
1.33427676076679,-4.82506554842315,-10.9990468684811,3.86002910708067,2.72836988313842,-10.528385264088,-6.97833927065571,3.08642372585845,-18.4772245281567,-12.5709221389477,-11.6817499045981
1.28943399988517,-4.80132870656307,-10.9947102752611,3.84190221903549,2.8113304283729,-10.4911097159337,-6.95328706002961,2.80609692065382,-18.4113546273898,-12.2971341954338,-11.9204403950943
1.24526404437716,-4.78274559107169,-10.989559690001,3.82538018778372,2.88892192937596,-10.4607943562237,-6.92813529697595,2.55084424721976,-18.3527296327394,-12.0330552541126,-12.147784908285
1.20212892429238,-4.76902584571592,-10.9837093707357,3.81054462103707,2.96119935624112,-10.437012203907,-6.90284922466629,2.32049667401702,-18.3019447980779,-11.7818280126906,-12.3610200515761
1.16043798310197,-4.75986866810663,-10.9772698219993,3.79747030147631,3.02825567849443,-10.4193261213869,-6.87742172472776,2.11472389528515,-18.259432957396,-11.5463935685821,-12.557639889857
1.12060643065624,-4.75496258553249,-10.9703454890872,3.78622111627787,3.09022167444003,-10.4072909252183,-6.85187405913616,1.93302428759581,-18.2254524152875,-11.3294324839027,-12.7354412521063
1.08301002096705,-4.75398550896658,-10.9630331243774,3.77684638002584,3.14726481825576,-10.4004557511947,-6.82625525831699,1.77471971251712,-18.2000791271994,-11.1333128002406,-12.8925615816797
1.04793931462061,-4.75660514587781,-10.9554208048442,3.7693776822679,3.19958725672573,-10.3983666187015,-6.80064024288623,1.63895545040567,-18.1832036492726,-10.9600464126823,-13.0275085472652
1.01555820298443,-4.76247983819646,-10.9475875479088,3.76382637635196,3.24742291223326,-10.400569128465,-6.77512681621489,1.52470532889738,-18.1745332154417,-10.8112547236808,-13.1391810172812
0.985872056554345,-4.77125987397632,-10.9396034441762,3.76018180458735,3.29103378077543,-10.4066112233957,-6.74983170586348,1.4307818792477,-18.1735991246538,-10.6881440058641,-13.2268813586083
0.958710505894782,-4.7825892990873,-10.93153020324,3.75841032508157,3.33070552992333,-10.416045944304,-6.72488586510331,1.35585113430575,-18.179769394568,-10.5914905108226,-13.2903192764248
0.93372819529694,-4.79610822836991,-10.9234219957165,3.7584551699698,3.36674253648455,-10.4284341200203,-6.70042927400604,1.29845149404581,-18.1922663699385,-10.521635109273,-13.3296075421523
0.910424076419817,-4.81145562544778,-10.9153264730993,3.76023712722544,3.39946253154644,-10.4433469432919,-6.67660550418958,1.25701594310394,-18.2101886869338,-10.4784871252724,-13.34524997693
0.888176662000333,-4.82827249007322,-10.9072858562866,3.76365600153317,3.42919103688759,-10.4603683983616,-6.6535563287775,1.22989681704696,-18.2325367261671,-10.4615369812319,-13.3381220205545
0.866290104171829,-4.84620536537186,-10.8993380000992,3.7685927738465,3.45625577866837,-10.4790975229223,-6.63141666065474,1.21539228050547,-18.2582404813925,-10.4698772361131,-13.3094441929739
