Finger Velocity,Scap_X,Scap_Y,Scap_Z,Shoulder horiz abd-adduction,Shoulder flexion-extension,Shoulder internal-external rotation,elbow flexion-extension,forearm pronation-supination,wrist flexion-extension,wrist radial-ulnar deviation
0.830428781979705,-17.0561818968599,-24.7408982571931,5.33903674949206,-16.1341340594198,-24.8708931827908,-15.9126113195149,58.5180307918167,-25.7538230350814,-28.4051528049351,1.25105569388448
1.08245990619722,-17.0587249317397,-24.7649826116709,5.34161786896652,-16.1497432013158,-24.8595780634023,-15.902011886807,58.5468564192484,-25.5019602248663,-28.3889237108953,1.4899518534312
1.35407395446273,-17.0634490654123,-24.7897780010626,5.34103341117912,-16.1639059213072,-24.8496562029305,-15.8875504010331,58.5768331367061,-25.2368205646487,-28.4047048330071,1.75406530918171
1.64365813690084,-17.0705917800458,-24.8151468221095,5.33685656623815,-16.1758609270304,-24.8412782826877,-15.868902666942,58.6073764603358,-24.9590077586971,-28.4561127249011,2.04346937167443
1.94930279639604,-17.0803707340372,-24.8409442086511,5.32867656439227,-16.1847804600312,-24.8345621891211,-15.8457712621572,58.6378108804031,-24.6692644654759,-28.546119854187,2.35769783795011
2.26880693790527,-17.0929773491033,-24.8670189126697,5.31610691036997,-16.1897789556306,-24.8295871462774,-15.8178916507822,58.6673726567788,-24.3684752995967,-28.676997258524,2.69570629505726
2.59969563772962,-17.108570339522,-24.8932141753605,5.29879362442178,-16.1899239437475,-24.8263880724274,-15.7850378929327,58.6952151761883,-24.057667781164,-28.8502765373488,3.05585200053755
2.93924530071921,-17.1272693496741,-24.9193685802314,5.27642326882574,-16.1842491158913,-24.8249503122705,-15.7470278003504,58.7204170076275,-23.7380107312557,-29.0667277472595,3.43589164272528
3.28451510321305,-17.1491488771146,-24.9453168842192,5.24873053020657,-16.1717693810653,-24.8252049209667,-15.7037274119117,58.7419926771524,-23.4108096565403,-29.3263490022851,3.83299533023013
3.63238364361018,-17.1742326616722,-24.9708908257551,5.21550512986974,-16.1514976362552,-24.8270246949249,-15.6550546928846,58.7589060592049,-23.0774987357183,-29.6283639851371,4.24377512420353
3.97959000919729,-17.2024887192171,-24.9959199103398,5.17659784536468,-16.1224628862082,-24.8302211548084,-15.6009823963355,58.7700861555832,-22.7396291120905,-29.9712248934269,4.66432707608834
4.3227784907995,-17.2338251942957,-25.0202321778592,5.13192544381863,-16.0837292638294,-24.8345426834098,-15.5415400578619,58.7744449124395,-22.3988533064921,-30.3526200220194,5.09028657835495
4.65854614548165,-17.2680871985701,-25.0436549659595,5.08147434934687,-16.0344154321701,-24.8396739984032,-15.4768151181835,58.7708966173695,-22.0569056907156,-30.7694866546416,5.51689736198457
4.98349236296505,-17.3050547886707,-25.0660156999641,5.02530289341247,-15.9737137984987,-24.8452370969347,-15.4069531791163,58.7583783278011,-21.7155791030645,-31.2180309150122,5.93909439586823
5.29426955101101,-17.3444422141949,-25.0871427552128,4.96354202958178,-15.9009089449137,-24.8507937533651,-15.3321574004816,58.7358707112292,-21.376697843155,-31.6937567089083,6.351600306944
5.58763402693796,-17.3858985336546,-25.1068664439216,4.89639443314732,-15.8153946801596,-24.8558495932719,-15.2526870445831,58.7024186299263,-21.0420874447802,-32.1915059913888,6.74903399918862
5.86049619084428,-17.4290096562023,-25.1250201718687,4.82413195136165,-15.7166891438509,-24.8598597116909,-15.1688551760902,58.6571507818042,-20.713541780002,-32.7055124461388,7.12602915567877
6.10996906312463,-17.47330182401,-25.1414417921085,4.74709142108665,-15.6044474467524,-24.8622357528346,-15.0810255318184,58.5992977202983,-20.3927881812797,-33.2294703566873,7.47735941038387
6.33341429540146,-17.518246506951,-25.1559751581674,4.6656689262615,-15.4784714087576,-24.8623543216447,-14.9896085880336,58.5282076229262,-20.0814513746195,-33.7566199822581,7.79806624142407
6.52848481009841,-17.5632666387512,-25.1684718534196,4.58031262541665,-15.338716059783,-24.8595665526278,-14.8950568707589,58.4433592605793,-19.7810170968719,-34.2798500484609,8.0835850963654
6.69316328894077,-17.6077440819422,-25.1787930516264,4.49151433673618,-15.1852926965151,-24.8532086167399,-14.7978595744441,58.3443717332674,-19.4927963297839,-34.7918169790742,8.32986494735085
6.8257958134931,-17.6510281675252,-25.1868114484264,4.39980012174316,-15.0184684328487,-24.8426129049255,-14.6985365755337,58.2310106735728,-19.2178911263273,-35.2850793013374,8.53347644497706
6.9251200597536,-17.6924451155005,-25.1924131940954,4.30572015437496,-14.8386623300786,-24.8271195939472,-14.5976319498697,58.1031907627039,-18.9571630329686,-35.7522444162053,8.69170415141056
6.99028756170117,-17.7313081082057,-25.1954997521743,4.20983819511021,-14.6464383281041,-24.8060882820941,-14.4957071231911,57.960974540613,-18.7112051263671,-36.1861238070196,8.80261900595897
7.02087968302756,-17.7669277648501,-25.1959896061456,4.11272100599853,-14.4424953082085,-24.7789093794971,-14.3933337959959,57.8045676082843,-18.4803186862291,-36.5798919024473,8.86512817197664
7.01691706922237,-17.7986227560824,-25.1938197386798,4.01492804055588,-14.2276546942633,-24.74501494652,-14.2910867837561,57.6343104094732,-18.2644955185243,-36.9272433075416,8.87900062430357
6.97886249049918,-17.8257303021725,-25.1889468164993,3.91700172324205,-14.0028460411416,-24.703888690893,-14.1895369022948,57.4506668415992,-18.0634069229001,-37.2225429863309,8.84486808214153
6.90761712615126,-17.8476163155058,-25.1813480288677,3.81945859771924,-13.7690910715588,-24.6550748587171,-14.0892440096403,57.2542099918414,-17.876400256662,-37.4609641207179,8.76420195292837
6.80451047868806,-17.8636849747083,-25.1710215480153,3.72278157219396,-13.5274866154733,-24.5981857865947,-13.9907502912806,57.0456053427762,-17.7025039688283,-37.6386086306545,8.63926765671669
6.67128423666198,-17.8733875505952,-25.1579866025098,3.62741342597018,-13.2791868888714,-24.5329079241614,-13.8945738460677,56.825591858735,-17.5404418391015,-37.7526056760549,8.47305805031068
6.51007052241451,-17.876230340215,-25.1422831746776,3.5337516686031,-13.0253855237544,-24.4590061918113,-13.8012025994179,56.5949614555963,-17.3886569324766,-37.8011840035943,8.26920786552641
6.32336505716233,-17.8717816018118,-25.1239713453114,3.44214476917702,-12.7672977256174,-24.3763266087814,-13.7110885470874,56.3545374664329,-17.2453454423911,-37.7837149136469,8.03189136730929
6.11399584010971,-17.8596774178774,-25.1031303101155,3.35288970727655,-12.5061428877968,-24.2847972074711,-13.6246423235298,56.105152828505,-17.1085001174833,-37.7007239388813,7.76570597393296
5.88508795537068,-17.8396264430754,-25.0798570842512,3.26623074744692,-12.2431279389234,-24.1844273308777,-13.5422280947015,55.847628812938,-16.9759623509604,-37.5538709394743,7.47554537244283
5.64002506866831,-17.811413517217,-25.054264900182,3.1823593094538,-11.9794316483373,-24.0753054800675,-13.4641587905941,55.5827551676854,-16.8454813283844,-37.3459000143342,7.16646658907568
5.3824080243931,-17.7749021411208,-25.0264812980382,3.1014147956032,-11.7161900704343,-23.9575959290686,-13.3906917092824,55.3112725132785,-16.7147780153705,-37.0805621153314,6.84355632044366
5.1160106610853,-17.7300358273567,-24.996645913167,3.02348623803753,-11.4544832728958,-23.8315343509839,-13.3220245368993,55.0338577015946,-16.581611339527,-36.7625142994516,6.51180238072427
4.84473247776784,-17.6768383507293,-24.9649079839303,2.948614638371,-11.195323461799,-23.6974227009892,-13.2582918392135,54.7511126346693,-16.4438437096802,-36.397200124886,6.17597625116964
4.57254704997475,-17.6154129348889,-24.9314236303285,2.87679588780237,-10.9396445861088,-23.5556235826396,-13.1995620982068,54.4635567807802,-16.2995029868891,-35.9907159264297,5.84053238987291
4.30344407879513,-17.5459404200114,-24.8963529829473,2.80798417733239,-10.6882934769332,-23.4065542907948,-13.1458353967651,54.1716233584881,-16.1468381510181,-35.5496677287228,5.50952915577043
4.04136169982577,-17.4686764609029,-24.8598572633412,2.74209583060713,-10.4420225569041,-23.2506806868516,-13.0970418921831,53.875658918962,-15.9843661952902,-35.0810233940526,5.18657493860207
3.79010439951589,-17.3839478053271,-24.8220959260209,2.67901350857431,-10.2014841442284,-23.088511027036,-13.0530412509976,53.5759258690082,-15.8109082303179,-34.5919642309773,4.87480144701309
3.55324113191487,-17.2921476996808,-24.7832239695853,2.61859074044062,-9.96722637413775,-22.9205898339609,-13.0136232304216,53.2726073605067,-15.6256133686482,-34.0897397824457,4.57686421632038
3.333979029721,-17.1937304657142,-24.7433895157326,2.56065673005301,-9.73969076390827,-22.7474918735179,-12.9785095801389,52.9658139350428,-15.427969651176,-33.5815290391674,4.29496839963534
3.13501194710527,-17.0892052921109,-24.7027317450252,2.50502137468949,-9.51921144815033,-22.5698162734962,-12.9473574027865,52.6555913540147,-15.2178020189631,-33.0743110045051,4.0309159770576
2.95835135836473,-16.9791292921226,-24.6613792685767,2.45148041829465,-9.30601609996152,-22.3881808017906,-12.9197640535625,52.3419291540601,-14.9952580746662,-32.574747311661,3.78616887934726
2.80515979802198,-16.8640998936213,-24.6194490031867,2.39982064677415,-9.10022852681078,-22.2032163159309,-12.8952735838236,52.0247696236255,-14.7607830568368,-32.089079280044,3.56192139491804
2.67562063514452,-16.744746649027,-24.5770456007802,2.34982502123521,-8.90187288923758,-22.0155614017971,-12.8733846505963,51.7040170637684,-14.515086006341,-31.6230412550408,3.35917474894335
2.5688850600981,-16.6217225776181,-24.5342614590616,2.30127763653132,-8.71087944046587,-21.8258572312817,-12.8535597366882,51.3795473331656,-14.2590994903287,-31.1817913068236,3.17880692995055
2.48312930407574,-16.4956951794797,-24.4911773092378,2.25396838712741,-8.52709163282895,-21.6347426778234,-12.8352354662442,51.0512177515528,-13.9939354411278,-30.769859503721,3.02163162764584
2.41572986061835,-16.3673372847776,-24.4478633422789,2.20769722101969,-8.3502743893668,-21.4428497300376,-12.8178337644093,50.7188774371453,-13.720839655711,-30.3911131959985,2.88844143695369
2.36353063529287,-16.2373179196874,-24.4043808038289,2.16227786736379,-8.18012329944283,-21.2507992373491,-12.8007735928536,50.3823780928056,-13.4411472910083,-30.0487381346953,2.78003216160014
2.32314997444133,-16.1062933789487,-24.3607839651641,2.11754093769453,-8.01627446701876,-21.0591970103676,-12.7834829823847,50.0415851550428,-13.1562413123054,-29.7452337950011,2.69720696884845
2.29126995104753,-15.9748986954666,-24.3171223651018,2.07333632639054,-7.8583147231866,-20.8686302845617,-12.7654110709208,49.6963891045901,-12.867515364846,-29.4824209640223,2.64076111754466
2.26486490604933,-15.8437396916189,-24.2734432129578,2.02953487181023,-7.70579191702142,-20.6796645395624,-12.7460398432652,49.3467166330179,-12.5763420093481,-29.2614595200842,2.61144979433337
2.24135029927396,-15.7133857858945,-24.2297938416779,1.98602928036111,-7.55822502599517,-20.4928406498476,-12.7248952680549,48.9925412928403,-12.2840467444537,-29.0828743863176,2.60994305166834
2.21865443158488,-15.5843637114584,-24.1862241008871,1.94273435698054,-7.41511388028979,-20.3086723278977,-12.7015575421466,48.6338932504687,-11.9918877701516,-28.9465878582697,2.63677281315724
2.19522829690134,-15.4571522796095,-24.1427885821837,1.89958662370813,-7.27594836798699,-20.1276438104631,-12.6756701800119,48.2708678170249,-11.7010410569891,-28.8519568426182,2.69227735300866
2.17001272246533,-15.3321782917948,-24.0995485758097,1.85654343866485,-7.14021706482481,-19.9502077354306,-12.6469477157463,47.9036325331465,-11.4125900073378,-28.7978139321517,2.77654858297041
2.14238020987268,-15.209813670477,-24.0565736712087,1.81358174493132,-7.00741529352685,-19.776783165142,-12.6151818101558,47.5324326978012,-11.1275188476019,-28.782511590933,2.88938694476224
2.1120648091133,-15.0903738425178,-24.0139429348308,1.77069657887411,-6.87705264846466,-19.6077537340425,-12.5802455767366,47.157595325511,-10.8467088716086,-28.803968984789,3.03026781610485
2.07908910002868,-14.9741173695518,-23.9717456246779,1.72789945234433,-6.74866001869242,-19.4434659295136,-12.5420959675976,46.7795315702381,-10.5709367409279,-28.8597211793482,3.19832224261079
2.04369388419349,-14.8612467798848,-23.9300814271773,1.68521670036966,-6.62179611880823,-19.2842275439592,-12.5007741018157,46.3987376643873,-10.3008741997616,-28.9469705737071,3.39233363505782
2.00627370828178,-14.7519105185118,-23.8890602226277,1.64268786457209,-6.49605351182926,-19.1303063550462,-12.4564034770925,46.0157944016214,-10.0370887408159,-29.0626405493227,3.61075089175696
1.96731970516482,-14.6462058988412,-23.8488013988861,1.60036416762168,-6.37106409135452,-18.9819290989373,-12.4091860789288,45.6313651621071,-9.78004493547217,-29.203431354529,3.85171723885133
1.92737021939838,-14.5441829141984,-23.8094327409974,1.55830712448402,-6.24650397816822,-18.8392808035835,-12.3593964852602,45.2461924531965,-9.5301063040923,-29.3658781757728,4.11311295343637
1.8869690745596,-14.4458487508511,-23.7710889295993,1.5165873283,-6.12209777257595,-18.7025045500169,-12.307374152036,44.8610929262105,-9.28753774801497,-29.546411195263,4.39260914536232
1.84663099782592,-14.3511728372107,-23.7339096847203,1.47528343996874,-5.99762208971461,-18.5717017280822,-12.2535141464244,44.4769508373728,-9.05250869139372,-29.7414172854463,4.68772908070825
1.80681355678458,-14.2600922645923,-23.6980375954893,1.43448139891043,-5.87290829969746,-18.446932843194,-12.1982566544691,44.094709951658,-8.82509717864904,-29.9473028780579,4.9959132287448
1.76789493937053,-14.1725174212721,-23.6636156824898,1.3942738549652,-5.74784440466026,-18.3282189066857,-12.142075616961,43.7153639389865,-8.60529522101391,-30.1605573986768,5.31458426446277
1.73015699455311,-14.0883376913152,-23.630784749833,1.35475979617778,-5.62237600908047,-18.2155434040115,-12.0854668414035,43.3399453721023,-8.39301565978047,-30.3778163777786,5.64120855322781
1.69377312567909,-14.0074270812319,-23.5996805979406,1.31604431719759,-5.49650636991181,-18.1088547887692,-12.0289359120682,42.9695134915916,-8.18810070654698,-30.595922917005,5.97335111092542
1.6588008574272,-13.929649650687,-23.5704311821148,1.27823844490391,-5.37029553937785,-18.0080694061929,-11.9729861900476,42.6051409460689,-7.99033214986308,-30.8119856845935,6.30872164469409
1.62517913512306,-13.854864638769,-23.5431538118355,1.24145891872698,-5.24385862849835,-17.9130747179844,-11.9181071719142,42.2478997417659,-7.7994430181982,-31.0234311629455,6.64521000652241
1.59273060785503,-13.782931194898,-23.5179524887222,1.20582781745411,-5.11736322118067,-17.8237326884663,-11.8647634627794,41.898846650923,-7.61513029768127,-31.2280476080348,6.98091018992237
1.56116924547402,-13.713712642794,-23.4949154772686,1.1714719323454,-4.99102596050792,-17.7398832003153,-11.8133846141116,41.5590083428502,-7.43706814796286,-31.4240182306932,7.31413282403288
1.53011361540175,-13.6470802261074,-23.4741131936403,1.13852180475124,-4.86510831891924,-17.6613473898028,-11.7643560716218,41.2293665235685,-7.26492096078446,-31.609941545595,7.64340691871248
1.49910600091694,-13.5829163038808,-23.4555964865208,1.10711037114701,-4.73991156122775,-17.5879308180746,-11.7180114667833,40.9108433992823,-7.09835557600773,-31.7848376125792,7.96747231307387
1.46763731397181,-13.5211169808066,-23.4393953719926,1.07737118757316,-4.61577091930065,-17.519426421361,-11.6746264628807,40.6042878057621,-6.93705200955338,-31.9481398637625,8.28526479406726
1.4351775015206,-13.4615941693393,-23.4255182718656,1.04943623834891,-4.49304902096625,-17.4556172069399,-11.6344143312933,40.3104623573953,-6.7807121436857,-32.0996731858247,8.5958961275802
1.40121092879844,-13.4042770878391,-23.413951790578,1.02343336930677,-4.37212865172115,-17.3962786814118,-11.5975233850294,40.0300319597519,-6.62906596543523,-32.239619779583,8.89863128091519
1.36527609488919,-13.3491132025212,-23.4046610491474,0.999483420897207,-4.25340497195669,-17.3411810128925,-11.5640363346082,39.7635540013133,-6.48187510391105,-32.3684749852646,9.19286494794122
1.32700901223101,-13.2960686230353,-23.3975905767383,0.977697167776317,-4.13727735806009,-17.2900909410857,-11.5339715601949,39.5114705030551,-6.33893360679165,-32.4869957088182,9.47809915899009
1.28618963436145,-13.2451279636313,-23.3926657436341,0.958172194691898,-4.02414107580377,-17.2427734610343,-11.5072862201642,39.2741024686771,-6.20006610041102,-32.5961442943586,9.75392330990259
1.24279075690144,-13.1962936857435,-23.3897947058246,0.940989849379265,-3.91437902391469,-17.198993316734,-11.4838810458224,39.0516466486536,-6.06512367918092,-32.6970306757758,10.0199974398733
1.1970286681278,-13.1495849452594,-23.388870821617,0.926212409950108,-3.80835380260924,-17.1585163464339,-11.4636066085969,38.8441749075978,-5.93397804994683,-32.7908554539926,10.2760391032368
1.14941416552138,-13.1050359793984,-23.3897754934213,0.913880589136934,-3.7064003672889,-17.1211107205809,-11.4462707922214,38.6516363630689,-5.80651459976367,-32.8788562365711,10.5218137789379
1.1008008331012,-13.0626940826367,-23.3923813807681,0.904011475180252,-3.60881952391877,-17.0865481077266,-11.4316471595407,38.4738624401505,-5.68262514798922,-32.9622591822254,10.7571284707789
1.05242384819067,-13.022617236204,-23.3965559217876,0.896596982864633,-3.51587251012504,-17.0546047966369,-11.419483871929,38.3105749539299,-5.5622011733436,-33.0422372443131,10.9818279705757
1.0059160664201,-12.9848714699244,-23.4021650896739,0.891602860448386,-3.4277768820534,-17.0250627963672,-11.4095128008614,38.1613972848624,-5.44512826693863,-33.1198761303954,11.1957931688701
0.963278430937963,-12.9495280483073,-23.4090772990602,0.888968270063392,-3.34470388845386,-16.9977109306064,-11.4014584694768,38.0258686448074,-5.33128245715843,-33.1961485112652,11.3989407811321
0.926771584479886,-12.9166605846924,-23.4171673658655,0.888605930901897,-3.26677745917149,-16.9723459382592,-11.3950464794585,37.9034613417636,-5.22052889778748,-33.2718965387653,11.5912238897213
0.898694350320171,-12.8863421969025,-23.4263204139246,0.89040278751808,-3.19407486713143,-16.9487735894298,-11.3900111153149,37.7936008401003,-5.11272323142318,-33.3478222797702,11.7726327667987
0.881039362111119,-12.8586428231883,-23.4364356131795,0.894221144221479,-3.12662904671153,-16.9268098247272,-11.3861018730495,37.6956882871878,-5.00771576026124,-33.4244852609573,11.9431955270226
0.875077925538476,-12.8336268163511,-23.4474296274731,0.899900196390954,-3.06443247547983,-16.9062819254467,-11.3830887302949,37.6091250496076,-4.90535839094209,-33.5023059784469,12.102978248363
0.881001451434258,-12.8113509261587,-23.4592396451635,0.907257892736301,-3.00744245872282,-16.8870297217162,-11.3807660538195,37.5333386881173,-4.80551417245832,-33.5815740039125,12.2520842875046
0.897767617897452,-12.7918627661952,-23.4718258640324,0.916093075483705,-2.9555876023235,-16.8689068442888,-11.378955118724,37.4678097144177,-4.70806911232405,-33.6624592476839,12.3906526022267
0.923217358096236,-12.7751998423195,-23.4851733057049,0.92618786092773,-2.90877522084576,-16.8517820223695,-11.3775052828406,37.4120984237903,-4.612945833009,-33.7450250166657,12.5188549762614
0.954395546713502,-12.7613891970227,-23.4992928464718,0.937310234244516,-2.86689940178759,-16.8355404233628,-11.3762939144588,37.3658710861855,-4.52011851924066,-33.8292416957559,12.6368921203299
0.987933933460846,-12.7504476980768,-23.5142213718123,0.949216837185993,-2.82984942968498,-16.8200850198989,-11.3752252110332,37.3289247950254,-4.42962851201694,-33.9150001397276,12.7449886962673
1.02038060681224,-12.7423829719253,-23.5300209898864,0.961655925693941,-2.79751826225609,-16.8053379553391,-11.3742280731724,37.3012103047617,-4.34159983323195,-34.0021241426609,12.8433873810021
1.04843304917503,-12.737194952958,-23.5467772724622,0.974370467728713,-2.76981074534001,-16.7912418628167,-11.3732532132255,37.2828522258124,-4.25625388201843,-34.0903816136031,12.9323421528128
