Finger Velocity,Scap_X,Scap_Y,Scap_Z,Shoulder horiz abd-adduction,Shoulder flexion-extension,Shoulder internal-external rotation,elbow flexion-extension,forearm pronation-supination,wrist flexion-extension,wrist radial-ulnar deviation
0.840357240166436,-20.0257458858774,-20.1702463968616,6.89353220734775,-14.0914883248228,-36.9646702491063,-11.3261370307711,64.9969811107166,-22.1550177560296,-20.1548895933501,-6.95752799127469
1.06046652202567,-20.0231879100008,-20.1619852061983,6.87524499017025,-14.1027268007326,-36.9749133161266,-11.3285714236209,64.9965015375852,-21.902196376267,-20.4125218463175,-6.7055085111127
1.30218187441123,-20.021836112881,-20.1517836121272,6.85132758428809,-14.108818870987,-36.9913601671692,-11.3273936915652,64.9981825657007,-21.6286472399503,-20.6941229095675,-6.43440171882163
1.56294279419248,-20.0218040711999,-20.1396614529932,6.82150834968629,-14.1089471353591,-37.0143047467879,-11.3222257789156,65.0022671835889,-21.3349027111843,-20.997072441095,-6.14718851549903
1.8403788990669,-20.0231921279484,-20.1256694513991,6.7855823536606,-14.1023034428485,-37.0439275613454,-11.3127089416996,65.0089594516104,-21.0216715036203,-21.3182911589748,-5.84737995288715
2.1320849694554,-20.0260844744256,-20.109888970226,6.74341815066721,-14.0881009783318,-37.0802814241338,-11.2985094139825,65.0184133703643,-20.6898252782011,-21.6543247792267,-5.53894900907795
2.43552470534994,-20.030546255911,-20.0924311700079,6.69496321925793,-14.0655863771266,-37.1232790671742,-11.2793240698863,65.0307217549733,-20.3403831329185,-22.0014437185943,-5.22624307865679
2.747995940757,-20.0366207210621,-20.0734356299405,6.64024783968518,-14.0340516192418,-37.1726830968685,-11.2548860616327,65.0459054371391,-19.9744946880893,-22.355753118611,-4.91388068067309
3.06662827723574,-20.0443264359896,-20.0530685177173,6.57938723865306,-13.9928454734553,-37.2280987267952,-11.2249704298723,65.0639031576367,-19.5934224413389,-22.7133067707668,-4.60663687052755
3.38839963379162,-20.0536545895061,-20.0315204056234,6.51258188029345,-13.9413842883955,-37.2889696593663,-11.1893996831416,65.0845625405705,-19.1985239871951,-23.0702181451317,-4.30932237081085
3.71016486058441,-20.0645664267001,-20.0090038296705,6.4401158374083,-13.8791619528036,-37.3545774155365,-11.1480493180895,65.1076325503595,-18.7912345814438,-23.4227620375147,-4.02666144444578
4.0286925556496,-20.0769908630521,-19.9857506759075,6.36235322942069,-13.80575886197,-37.4240443326619,-11.1008531998656,65.132757819279,-18.373050397308,-23.7674613011745,-3.76317308585723
4.34070762529845,-20.0908223484861,-19.9620094570866,6.27973276389455,-13.7208497309136,-37.4963403656847,-11.0478086513976,65.1594751967802,-17.9455126869858,-24.1011545515248,-3.52305936699188
4.64293780511072,-20.1059190668292,-19.9380425190415,6.1927604701368,-13.6242100917175,-37.5702937348456,-10.9889810268603,65.1872128131337,-17.510192943243,-24.4210424287336,-3.31010393514622
4.93216269222966,-20.122101568379,-19.9141231952304,6.10200076792368,-13.5157213083249,-37.6446053621798,-10.9245074864684,65.215291872055,-17.0686790605452,-24.7247118007,-3.12758288027466
5.20526400966861,-20.1391519402916,-19.890532913561,6.00806607043208,-13.3953739414457,-37.7178669283625,-10.8545996612573,65.2429312928541,-16.6225624247373,-25.0101390395136,-2.9781895826516
5.45927591712801,-20.1568136213367,-19.8675582509508,5.91160517415694,-13.2632693013096,-37.7885822652705,-10.779544903863,65.269255214912,-16.1734258086541,-25.2756750756116,-2.86397476538692
5.69143424521953,-20.1747919650023,-19.8454879229921,5.81329073502841,-13.1196190381249,-37.8551916880708,-10.6997058621249,65.2933032600176,-15.7228319115451,-25.5200162053561,-2.78630279125138
5.89922358467724,-20.1927556485354,-19.8246096835738,5.7138061648996,-12.9647426414469,-37.9160987744729,-10.6155181791804,65.3140433294864,-15.2723123545461,-25.7421654888663,-2.74582518803196
6.08042122175843,-20.2103390144295,-19.8052070921121,5.61383230363264,-12.7990627534101,-37.9696990227919,-10.5274862069859,65.3303866039202,-14.8233569442769,-25.9413899398255,-2.74247234601082
6.23313698213801,-20.2271454126269,-19.7875560894693,5.5140342284629,-12.6230982484778,-38.0144097639692,-10.4361767098874,65.3412043223506,-14.3774030528354,-26.1171785554194,-2.77546415299419
6.35584813108899,-20.242751584194,-19.7719213146054,5.41504855468574,-12.43745509199,-38.0487006645219,-10.342210622917,65.3453458470814,-13.9358250327873,-26.269205630923,-2.84333986579213
6.44742857818077,-20.2567130908787,-19.7585520970918,5.31747156062401,-12.2428150576008,-38.0711241380437,-10.2462530115749,65.3416574707962,-13.4999236731203,-26.3973028881874,-2.94400668959853
6.50717174903065,-20.2685707523571,-19.7476780774908,5.22184843536573,-12.0399224575992,-38.0803449824222,-10.1490014551343,65.3290013952432,-13.070915783104,-26.501442867351,-3.07480541657624
6.53480661245072,-20.2778580072491,-19.7395044383389,5.12866390030998,-11.8295691187506,-38.0751685765376,-10.0511731439728,65.3062743097675,-12.6499240479777,-26.581734895597,-3.23259025290046
6.53050648520737,-20.2841090683921,-19.7342067720753,5.03833439732648,-11.6125779148273,-38.0545670002978,-9.95349104017357,65.2724250244336,-12.2379673294561,-26.6384338296321,-3.4138188716095
6.49489037413974,-20.2868677005924,-19.7319256662028,4.9512019715682,-11.3897852368984,-38.0177024809874,-9.856669493983,65.2264706631045,-11.8359515944305,-26.6719607364494,-3.61464797113963
6.42901675119498,-20.2856964127402,-19.7327611448597,4.86752991094828,-11.1620228367134,-37.9639476144208,-9.76139973360814,65.1675109911659,-11.4446616614098,-26.6829338055617,-3.83102933489683
6.33436978468187,-20.2801858275382,-19.7367671620309,4.78750014200757,-10.9300995141299,-37.8929018618008,-9.66833565454393,65.0947405359782,-11.0647539664484,-26.6722071481076,-4.05880161796929
6.21283816235594,-20.2699639717181,-19.743946388583,4.71121232752833,-10.6947831362827,-37.804403883294,-9.57808033031069,65.0074582517073,-10.6967505699764,-26.6409147648575,-4.29377377012679
6.0666867304653,-20.2547052172378,-19.7542455705693,4.63868456849842,-10.4567834766782,-37.6985393364481,-9.49117364887263,64.9050745801039,-10.3410346469278,-26.590516807499,-4.5317970102032
5.89852122843112,-20.2341385997167,-19.7675517583561,4.56985558456732,-10.2167363514466,-37.5756438416281,-9.4080814454197,64.7871158615304,-9.99784771470783,-26.5228452023401,-4.7688234594702
5.7112464120171,-20.2080552451296,-19.7836897123501,4.50458823256792,-9.97518951014863,-37.4363008994692,-9.3291864506868,64.653226152335,-9.66728884517125,-26.4401456531856,-5.00095079639954
5.50801782045104,-20.1763146503755,-19.8024207780983,4.44267421806882,-9.7325907067421,-37.2813346391451,-9.25478130500991,64.5031665990661,-9.34931606580075,-26.3451129698104,-5.22445348118209
5.29218735085016,-20.1388495881998,-19.823443489018,4.38383985577162,-9.48927832666431,-37.111797382021,-9.1850638057413,64.3368125958106,-9.04375007033751,-26.240916622733,-5.43580208350911
5.06724266163918,-20.0956694417212,-19.846396100648,4.32775273898743,-9.2454748761476,-36.9289521208543,-9.12013446687215,64.1541489977802,-8.75028022709833,-26.1312134543031,-5.63167294556095
4.83674025863152,-20.0468618164882,-19.8708611928523,4.27402918646432,-9.00128355533581,-36.7342501346186,-9.05999638419543,63.955263685036,-8.46847271236908,-26.0201446077388,-5.80895082149767
4.60423197706514,-19.9925923255706,-19.8963724030723,4.22224234531001,-8.75668804784222,-36.5293040789888,-9.00455732491703,63.7403397826155,-8.19778044715387,-25.9123139809026,-5.96472731885843
4.37318456057405,-19.9331024939166,-19.9224232758571,4.17193083871322,-8.51155557357311,-36.3158570136486,-8.95363390025727,63.5096468630339,-7.93755442014108,-25.8127458913582,-6.09629799951796
4.14689231347793,-19.8687057822774,-19.9484781267164,4.12260785417222,-8.26564316964848,-36.0957479539922,-8.906957631869,63.2635314830752,-7.68705595819026,-25.7268201877824,-6.20116092388577
3.92838358094144,-19.799781789126,-19.9739847157593,4.07377057090434,-8.01860708338746,-35.8708746680659,-8.86418268588085,63.0024074255805,-7.44546955158997,-25.6601837755726,-6.27701925809039
3.72032331866273,-19.7267687506105,-19.9983884070961,4.02490982298061,-7.77001508126517,-35.6431545749791,-8.82489502175793,62.7267460163962,-7.21191593128618,-25.6186384380761,-6.32179028906531
3.52491637433675,-19.650154521098,-20.021147361332,3.97551988647174,-7.51936140260908,-35.4144847270846,-8.78862268734855,62.4370668620833,-6.98546519992274,-25.6080059603588,-6.33362273496697
3.34381915076923,-19.5704662758478,-20.041748190188,3.92510826485144,-7.26608402162725,-35.1867019579346,-8.75484698560116,62.1339293066952,-6.76514991228969,-25.6339729655527,-6.31092350787548
3.17807038834862,-19.4882592276904,-20.0597214218756,3.87320532893269,-7.0095838265805,-34.9615443311226,-8.72301423986636,61.8179248405453,-6.54997806964052,-25.7019195599216,-6.25239404306191
3.02805365519177,-19.4041046875648,-20.0746561053546,3.8193736479379,-6.74924527572633,-34.7406150161756,-8.69254789098134,61.48967061693,-6.33894603572457,-25.8167377292238,-6.15707500247722
2.89350324865752,-19.318577823561,-20.0862129225219,3.76321682917797,-6.48445804241261,-34.5253496460713,-8.66286067069515,61.1498041514061,-6.13105140487688,-25.9826471948574,-6.02439672107043
2.77356053746269,-19.2322454858516,-20.09413526143,3.70438766830773,-6.21463911969719,-34.3169880904827,-8.63336661523448,60.7989791996105,-5.9253058530294,-26.2030178024827,-5.85423139737251
2.66687962869184,-19.1456544661901,-20.0982578091023,3.64259540424144,-5.93925482598626,-34.1165514266095,-8.60349271123148,60.4378627412606,-5.72074797523593,-26.4802082008656,-5.64694195733729
2.57177172117157,-19.0593205496369,-20.0985123368518,3.57761187580109,-5.65784214146017,-33.924824718755,-8.57268999915251,60.0671329470268,-5.51645605994621,-26.8154304985531,-5.40342189858947
2.48636978420625,-18.9737186913583,-20.094930469444,3.50927639145335,-5.37002880669604,-33.7423460392449,-8.5404439862364,59.6874779751074,-5.3115606856752,-27.2086498338382,-5.12512033856043
2.40879197369027,-18.8892746120528,-20.0876433479801,3.43749914682477,-5.07555162390621,-33.5694019849459,-8.50628423250716,59.2995954324082,-5.10525696629285,-27.6585264052927,-4.81404701758066
2.33728426790534,-18.8063580526809,-20.0768782093177,3.36226305499617,-4.77427241756224,-33.406029767667,-8.46979296954558,58.9041923321271,-4.89681622179506,-28.1624055263489,-4.47275317443179
2.27032883676951,-18.7252778651997,-20.0629520074185,3.28362389221026,-4.46619114095434,-33.2520257809473,-8.43061260145064,58.5019853772185,-4.68559680964439,-28.7163588224196,-4.1042859454523
2.20671215513669,-18.6462790446811,-20.0462622922594,3.2017087084285,-4.15145566329998,-33.1069603710091,-8.38845193101979,58.093701396806,-4.47105381998918,-29.3152768830841,-3.7121161271081
2.14555353374573,-18.5695417338007,-20.0272756409255,3.1167125090213,-3.83036783789195,-32.9701983711296,-8.34309095731153,57.6800777642392,-4.25274732227929,-29.9530104570473,-3.30004168511102
2.08629931388537,-18.4951821569252,-20.0065140063286,3.02889327958853,-3.50338553377034,-32.8409247996549,-8.29438410804611,57.2618626346366,-4.03034885073162,-30.6225537000016,-2.87207206918575
2.02869030492671,-18.4232553705095,-19.9845394150362,2.93856549715735,-3.1711204136178,-32.7181749718666,-8.24226180844711,56.8398148576601,-3.8036458253516,-31.3162596024103,-2.43230072879072
1.97271067229519,-18.353759651044,-19.9619375089603,2.84609234203738,-2.83433136400036,-32.6008681338263,-8.18673034869891,56.4147034480803,-3.57254362090458,-32.0260753297149,-1.98477467497832
1.91852612838408,-18.2866422828917,-19.9393004863899,2.75187688769011,-2.49391363426426,-32.4878435932607,-8.12787008507823,55.9873065319147,-3.33706502521301,-32.743784223046,-1.53337021791419
1.86641851821162,-18.2218064586634,-19.9172100503174,2.65635259375511,-2.15088391600725,-32.3778982068057,-8.06583208064571,55.5584097285445,-3.09734688448593,-33.461241491283,-1.0816832129911
1.81672303360376,-18.1591189696687,-19.8962209993776,2.55997345549934,-1.8063617871705,-32.2698240044424,-8.00083335161322,55.1288039761402,-2.85363382983847,-34.1705918542568,-0.632940522711342
1.76977338913352,-18.0984183497462,-19.8768460775775,2.46320417013623,-1.46154813618163,-32.1624447131024,-7.93315093007307,54.6992828518692,-2.60626911940284,-34.8644594544097,-0.189937170938542
1.7258592419069,-18.0395231446088,-19.8595426258479,2.36651066662752,-1.11770135031972,-32.0546499891868,-7.86311497443717,54.2706394714755,-2.35568280739185,-35.5361032426779,0.244998957509324
1.68519878537601,-17.9822400065608,-19.8447014661039,2.27035131115265,-0.776112178418389,-31.9454262739328,-7.79110114920277,53.8436630722854,-2.10237765000222,-36.1795344747936,0.670015691018575
1.64792772100196,-17.9263713542093,-19.8326383217563,2.1751690477842,-0.438078247033923,-31.8338833370095,-7.71752246448754,53.4191353959918,-1.84691335564745,-36.7895962242457,1.08372148301056
1.61410379563688,-17.8717223831415,-19.8235879559813,2.08138466854628,-0.104879215312658,-31.7192757733204,-7.64282073858313,52.9978270037509,-1.58988995303913,-37.3620072819694,1.48515119099275
1.58372404248192,-17.8181072630434,-19.8177010988042,1.98939133607143,0.222246499240385,-31.6010189606532,-7.56745784419526,52.5804936813339,-1.3319311527827,-37.893374348329,1.87371791533454
1.55675013700321,-17.7653544070787,-19.8150441382662,1.89955041151138,0.5421225922681,-31.478699246979,-7.49190691831238,52.1678731202961,-1.0736685970792,-38.3811772944583,2.24915614924473
1.53313621571956,-17.7133107487539,-19.8156014688913,1.8121885741524,0.853652644710199,-31.3520783842751,-7.41664373821681,51.7606820806455,-0.815727829928105,-38.823732709485,2.61146113827647
1.51285331482715,-17.6618450080887,-19.8192803201565,1.7275961601711,1.15583426262324,-31.2210924410053,-7.34213847529798,51.3596142412193,-0.5587166950995,-39.220141017075,2.96082869006548
1.4959052971293,-17.6108499704212,-19.8259178254127,1.64602659869545,1.44776924220676,-31.0858456026364,-7.26884802497983,50.9653389192521,-0.303216704089434,-39.5702221510673,3.29759879804278
1.48233262400557,-17.560243835227,-19.8352900344183,1.56769678655801,1.72866962931151,-30.9465994107465,-7.1972090740796,50.5785007879562,-0.0497777302372158,-39.874444198001,3.62220546358272
1.4722023746272,-17.509970716991,-19.8471225203235,1.49278822162336,1.99785976007432,-30.8037580990578,-7.12763201527833,50.1997206443476,0.201083810173043,-40.133848660612,3.93513415113444
1.46558525145858,-17.4600003948401,-19.8611021892085,1.42144870944959,2.25477457086015,-30.6578507590702,-7.06049576745142,49.8295971895312,0.448883327437378,-40.3499751638618,4.23688748272081
1.46252263417082,-17.4103274143242,-19.8768898723954,1.35379446682774,2.49895463442074,-30.5095111084051,-6.99614352171211,49.4687096937069,0.693163211870688,-40.52478757914,4.5279591090259
1.46298869622713,-17.3609696474184,-19.8941332699126,1.28991246305576,2.73003850829101,-30.3594556462581,-6.93487940761593,49.1176213411895,0.933485187711172,-40.6606027769197,4.8088152009973
1.46685379077226,-17.3119664184201,-19.9124798156381,1.22986286078092,2.94775307007559,-30.2084609709354,-6.87696605665943,48.7768829964548,1.16942044101031,-40.7600226434563,5.07988270151512
1.47385541934806,-17.2633763034967,-19.9315890494858,1.17368144109036,3.15190256105658,-30.0573410076048,-6.82262302492601,48.4470371053599,1.40053821265577,-40.8258696493107,5.34154334279648
1.48358200533553,-17.2152747080506,-19.9511441100754,1.12138192307959,3.34235706131672,-29.9069248456471,-6.77202602135968,48.1286214467099,1.62639361875494,-40.8611260771911,5.59413241209153
1.49547262000962,-17.1677513181758,-19.9708620025331,1.07295811736808,3.51904107484983,-29.7580358101991,-6.72530687584874,47.8221724764383,1.84651548416789,-40.8688769245426,5.83794127197399
1.50883328002246,-17.1209075122723,-19.9905023481813,1.02838588484866,3.68192281644115,-29.6114722943813,-6.68255417670431,47.5282280558277,2.06039495404441,-40.8522564500425,6.07322267860872
1.5228681107445,-17.0748538089788,-20.0098743826892,0.987624902940859,3.83100467497316,-29.4679907655927,-6.64381451083583,47.2473294185349,2.26747558874888,-40.8143983224926,6.30019798842612
1.5367220898519,-17.0297074188983,-20.028842033881,0.950620267460897,3.96631519464545,-29.3282912413882,-6.60909424701059,46.9800222986796,2.46714555686192,-40.7583893574402,6.51906541328988
1.54953148541645,-16.9855899591314,-20.0473269769988,0.91730397533903,4.08790277843131,-29.1930054179289,-6.57836180621903,46.7268572054646,2.65873242536255,-40.6872268899847,6.73000859232096
1.56047838788837,-16.9426253802352,-20.0653096309183,0.887596340502788,4.19583118543471,-29.0626875334294,-6.55155035970555,46.4883888828991,2.84150091005778,-40.6037799132208,6.93320489500387
1.56884659271395,-16.9009381444427,-20.0828281221389,0.861407393797513,4.29017677271397,-28.9378079609224,-6.52856088609788,46.2651750314918,3.01465379641634,-40.5107541786713,7.1288330284027
1.57407714463776,-16.8606516814443,-20.0999753052343,0.838638310473055,4.37102732910552,-28.8187494453084,-6.50926550874151,46.0577743889488,3.17733607521446,-40.4106614857253,7.31707965624006
1.57582278002211,-16.8218871334401,-20.1168939899236,0.819182897379364,4.43848226857398,-28.7058058262774,-6.49351102745546,45.8667442687888,3.32864216707973,-40.3057933819111,7.49814483265697
1.57400105394139,-16.7847623855938,-20.1337705829669,0.802929157292172,4.49265389663949,-28.5991830237291,-6.48112255825413,45.6926376431386,3.46762595108074,-40.1981994672852,7.6722461135174
1.56884591380476,-16.7493913647378,-20.1508274000486,0.789760929847269,4.53366943758526,-28.4990020133591,-6.47190719915317,45.5359998359704,3.59331318388516,-40.0896704558383,7.8396212435904
1.56095666493918,-16.7158835816193,-20.1683139314196,0.779559588173659,4.56167351315398,-28.4053034947437,-6.46565764612401,45.3973648747537,3.70471580937688,-39.9817261018909,8.00052933612618
1.55134139862514,-16.6843438907669,-20.1864973541248,0.772205750351557,4.57683079196415,-28.3180539541221,-6.46215568823965,45.2772515395812,3.80084761550243,-39.8756080549459,8.15525047343027
1.54144875785862,-16.6548724445437,-20.2056525780262,0.767580949377068,4.57932857447805,-28.2371528428927,-6.46117551682059,45.1761591521866,3.88074069284085,-39.7722776627524,8.30408368261357
1.53317739837507,-16.6275648205898,-20.2260520991699,0.765569197212203,4.56937913022611,-28.1624406202883,-6.46248679377853,45.0945631606769,3.94346218522367,-39.672418687729,8.44734329153382
1.52884747979755,-16.6025123022662,-20.2479559171897,0.766058378349108,4.54722165274181,-28.0937074354929,-6.46585744228763,45.0329105948583,3.98813089183029,-39.5764448168008,8.58535373368401
1.53111543527134,-16.5798022892291,-20.2716017558997,0.768941415172918,4.51312373741891,-28.0307022452725,-6.47105614860976,44.9916154879872,4.01393337299801,-39.4845117230756,8.71844292306358
1.54281658457533,-16.5595188107899,-20.2971958085736,0.774117159111634,4.46738231687173,-27.9731421769441,-6.47785459378213,44.9710543809524,4.02013931330996,-39.3965332980041,8.84693434831407
1.56673483963815,-16.541743109954,-20.3249042113235,0.781490975466878,4.41032400994757,-27.9207219551606,-6.48602946153378,44.9715620415235,4.00611598574633,-39.312201541116,8.97113804263316
1.60532543445608,-16.5265542618715,-20.3548454299795,0.790975004148531,4.34230485875204,-27.8731232169037,-6.4953642879183,44.9934275407064,3.97134171947904,-39.2310094863866,9.09134057957458
1.66044566835086,-16.514029786147,-20.3870837300699,0.80248809297266,4.2637094466081,-27.830023542778,-6.5056512237986,45.0368908267048,3.91541828560013,-39.1522764642723,9.20779423161423
1.73316112879873,-16.5042462073777,-20.4216238871271,0.815955414781171,4.17494941115489,-27.7911050336845,-6.51669276994013,45.1021399217113,3.8380820753121,-39.0751749486635,9.32070541719584
