Finger Velocity,Scap_X,Scap_Y,Scap_Z,Shoulder horiz abd-adduction,Shoulder flexion-extension,Shoulder internal-external rotation,elbow flexion-extension,forearm pronation-supination,wrist flexion-extension,wrist radial-ulnar deviation
1.01163979781774,-20.0992640548536,-20.6779551435167,7.07002070955371,-13.5919189192548,-35.5542460664416,-11.9675717850692,62.167249760071,-23.4735050624861,-14.2168415417982,-5.56215022887537
1.23243068384581,-20.0931337574721,-20.6925825648134,7.07405988764241,-13.6350479816493,-35.5241276266086,-11.9665938652846,62.2198637819652,-23.1279445339712,-14.2403952942293,-5.49693579991626
1.466285989961,-20.0892521436164,-20.705248814385,7.0744112485163,-13.6755799089721,-35.4965653390959,-11.9635745463689,62.2764129221649,-22.748354479706,-14.2440735977675,-5.45064048692761
1.71109291884198,-20.0878889319825,-20.7156732952493,7.07052914581641,-13.7124137973566,-35.4719999346165,-11.9582200358499,62.3364943223627,-22.3350321626272,-14.2266473727811,-5.42551994377941
1.96466010006066,-20.0892929405059,-20.7236124033555,7.06188628874229,-13.7444003599302,-35.450800736148,-11.9502415789334,62.3996061212792,-21.8886454850315,-14.1874364713945,-5.42347908365116
2.22468904752493,-20.0936840217505,-20.7288656063111,7.04798651508907,-13.770361457866,-35.433250071167,-11.9393613395605,62.4651489382461,-21.4102423114525,-14.1263783445927,-5.44601052329847
2.48877724394794,-20.1012449566828,-20.7312803000732,7.02837781088566,-13.7891116705885,-35.4195290410869,-11.9253186093859,62.5324293618399,-20.9012548709892,-14.0440710534465,-5.49415191311659
2.75443786067597,-20.1121135741686,-20.7307552968899,7.00266520161955,-13.7994814246125,-35.4097051322808,-11.9078762408537,62.6006654658596,-20.3634984772879,-13.9417860157617,-5.5684645520235
3.01912911360347,-20.1263753708612,-20.7272428463306,6.97052310958142,-13.8003411163974,-35.4037221378615,-11.8868271786965,62.6689943153472,-19.7991638099154,-13.8214480179655,-5.66903354670829
3.28028951998879,-20.1440569008128,-20.7207491481135,6.93170675369767,-13.7906255886229,-35.4013928226525,-11.8620009388685,62.7364813614829,-19.2108021057326,-13.6855824445079,-5.79548753494087
3.53537674582607,-20.165120186014,-20.7113333795313,6.88606216570633,-13.7693582559982,-35.4023947018445,-11.8332698561234,62.802131556605,-18.6013028087926,-13.5372320881789,-5.94703401103513
3.78190839097477,-20.1894583685887,-20.6991053287055,6.83353441289048,-13.7356741312864,-35.4062692161853,-11.8005548921546,62.8649019501902,-17.9738635015327,-13.3798480359201,-6.12250491036004
4.01750338076213,-20.2168927840917,-20.684221791759,6.7741736550709,-13.68884098063,-35.4124244773851,-11.7638307677335,62.9237154573805,-17.3319522577512,-13.2171608067821,-6.3204065501313
4.23992280430123,-20.2471715867616,-20.6668819482544,6.70813872221588,-13.6282778460437,-35.4201416354946,-11.723130159508,62.977475429254,-16.679262880368,-13.0530390996545,-6.53896833555509
4.44710914640301,-20.2799700064031,-20.6473219660067,6.6356979762561,-13.5535702174104,-35.4285847948581,-11.6785466922808,63.025080604635,-16.0196637738883,-12.8913441939273,-6.77618573222579
4.63722294236995,-20.3148922668199,-20.6258090992698,6.55722731229435,-13.4644812188243,-35.4368142828209,-11.630236467366,63.0654399944907,-15.3571414279137,-12.7357882585878,-7.02985467085926
4.80867596296111,-20.3514751494993,-20.6026355343916,6.47320525565951,-13.3609582933828,-35.4438029585359,-11.5784178988928,63.0974872495969,-14.6957396565836,-12.5898045880148,-7.2975964837953
4.96016011978754,-20.3891931439484,-20.5781122087572,6.38420521762988,-13.2431350226746,-35.4484551410014,-11.5233696795055,63.1201940936909,-14.0394958712293,-12.4564370503527,-7.57687436033033
5.09067137310399,-20.4274650872917,-20.5525627875576,6.29088508019484,-13.1113278966113,-35.4496276399492,-11.4654267604651,63.1325824652225,-13.3923757815253,-12.3382546979027,-7.86500390502262
5.19952802497013,-20.465662160057,-20.526317934119,6.1939743848729,-12.9660280481895,-35.4461522945959,-11.404974306128,63.1337350934119,-12.7582080321896,-12.2372955608757,-8.15916146956334
5.28638288970203,-20.5031170724839,-20.4997099590285,6.09425949670973,-12.8078881756214,-35.4368593671136,-11.3424396679954,63.1228043277114,-12.1406203773017,-12.1550413661793,-8.45639428527246
5.35122894793653,-20.5391342464215,-20.4730678866383,5.99256719500787,-12.6377050785935,-35.4206011037219,-11.2782825178908,63.0990191326466,-11.542979048105,-12.0924226204859,-8.75363594692848
5.39439820748766,-20.5730007727052,-20.4467129387276,5.88974720096513,-12.4563984244329,-35.3962747708484,-11.2129833814535,63.0616902439747,-10.9683329592711,-12.0498514256052,-9.04772961332954
5.41655361054474,-20.6039979039625,-20.4209544066171,5.7866541859472,-12.2649865235704,-35.3628445000512,-11.1470309159119,63.0102135535518,-10.4193643150965,-12.0272777156081,-9.33545971057104
5.41867394041438,-20.6314128291726,-20.3960858668373,5.68412981157921,-12.0645600223134,-35.3193613327352,-11.0809083669818,62.9440718495404,-9.89834702829178,-12.0242634247542,-9.61359133002789
5.40203179116655,-20.6545504697123,-20.3723816929906,5.58298533472042,-11.8562545046026,-35.2649809393131,-11.0150797035208,62.8628350868748,-9.40711416092323,-12.0400684555349,-9.87891523813333
5.36816477175117,-20.6727450374371,-20.3500938277658,5.48398526918105,-11.6412230236455,-35.1989785902451,-10.9499759572887,62.7661593999223,-8.94703534657302,-12.0737421775783,-10.1282956802433
5.31884022716259,-20.6853711032794,-20.3294488017527,5.38783253629829,-11.4206095540392,-35.1207610717855,-10.8859822898079,62.6537850943078,-8.5190048592688,-12.1242144624473,-10.3587180316862
5.25601388174049,-20.6918539390375,-20.3106450146612,5.2951554640978,-11.1955242688359,-35.0298753618003,-10.8234262744821,62.5255338681027,-8.12344066227039,-12.1903808700034,-10.5673337272388
5.18178295654659,-20.6916789148261,-20.2938503229821,5.20649691610579,-10.9670214162512,-34.9260140035728,-10.7625678310148,62.3813055127647,-7.76029440164446,-12.271177493373,-10.7515005789734
5.09833450002254,-20.6843997594607,-20.2791999993988,5.1223057516486,-10.7360804132482,-34.80901722838,-10.7035911966892,62.2210743273258,-7.42907191365584,-12.3656420675344,-10.9088173504474
5.00788991539053,-20.6696455200599,-20.2667951390062,5.04293074316971,-10.5035906022954,-34.6788719731682,-10.6465992733452,62.0448854435378,-7.12886341463423,-12.4729591437534,-11.0371521286438
4.91264698130468,-20.6471260897272,-20.2567015847139,4.96861700342951,-10.2703399431204,-34.5357080165853,-10.591610640804,61.8528512101657,-6.85838217543572,-12.5924883127271,-11.1346645421066
4.81472104309028,-20.6166362083097,-20.2489494311665,4.89950490596054,-10.0370077385585,-34.3797915181454,-10.5385594587857,61.6451477306886,-6.61601018865381,-12.7237755294016,-11.1998221992156
4.71608747686066,-20.5780578807862,-20.2435331465167,4.83563141632568,-9.80416132562123,-34.211516294019,-10.487298378249,61.4220115977421,-6.39984913818958,-12.8665484977702,-11.2314118822716
4.61852794273953,-20.5313611996655,-20.2404123277717,4.77693369134231,-9.57225650486037,-34.0313931991125,-10.4376044520959,61.1837368237634,-6.20777487861662,-13.0206978001715,-11.2285460601529
4.52358325684292,-20.4766035999014,-20.2395130807762,4.72325475068867,-9.34164134266023,-33.8400380095332,-10.3891878877512,60.9306719342416,-6.03749361345653,-13.1862460153448,-11.1906652103592
4.43251580977116,-20.4139276150854,-20.2407299924056,4.674350982538,-9.11256287339959,-33.6381582144604,-10.3417033361895,60.6632171722234,-5.88659801555108,-13.363307488752,-11.1175363067739
4.34628422697191,-20.3435572401567,-20.2439286420835,4.62990121393637,-8.88517615807345,-33.426539132051,-10.2947632763051,60.3818217618437,-5.75262165511047,-13.5520417234265,-11.0092476639237
4.26553232687803,-20.2657930371724,-20.2489485832706,4.58951705716586,-8.65955512112951,-33.2060297577171,-10.247952940373,60.0869811902331,-5.63309029007514,-13.7526035597926,-10.8662001618281
4.19059338989337,-20.1810061459449,-20.25560671306,4.55275423260348,-8.43570458004777,-32.9775287324829,-10.2008461492879,59.7792344832114,-5.52556881964319,-13.9650933944033,-10.6890947404105
4.1215094149787,-20.0896313796325,-20.2637009397477,4.51912456418568,-8.21357289595863,-32.7419707818062,-10.1530214014812,59.4591614633826,-5.42770298231466,-14.189510621718,-10.4789159778418
4.05806361902204,-19.9921595955048,-20.2730140555678,4.48810834513254,-7.99306470705284,-32.5003139193251,-10.1040775894658,59.1273799860205,-5.33725516777444,-14.4257132460269,-10.2369115670507
3.99982318650379,-19.8891295326864,-20.283317726001,4.45916677949672,-7.77405326027062,-32.2535276402986,-10.0536487803745,58.7845431509224,-5.25213399202342,-14.6733861979341,-9.96456757704966
3.9461884396669,-19.7811193029115,-20.2943765176124,4.43175421884446,-7.55639192867457,-32.0025822586574,-10.0014175612499,58.4313364933397,-5.170417550874,-14.9320203194669,-9.66357952150087
3.89644431552011,-19.6687377091919,-20.3059519004732,4.40532993140175,-7.33992458734893,-31.7484394785406,-9.9471265068522,58.06847516593,-5.09037050359796,-15.2009032872396,-9.33581944746627
3.84981031669442,-19.552615552502,-20.3178061759397,4.37936916152435,-7.124494614181,-31.4920442336184,-9.89058739186152,57.6967011306516,-5.01045532299093,-15.4791229609378,-8.98329949710138
3.80548583558727,-19.4333970691947,-20.3297062949144,4.35337325946852,-6.90995237761154,-31.2343177688276,-9.83168785377206,57.316780378261,-4.9293381700004,-15.7655828125379,-8.60813267814471
3.76268874467871,-19.311731622799,-20.3414275461638,4.3268786861376,-6.69616116567014,-30.9761518784711,-9.77039531213348,56.9295001833589,-4.84588992401873,-16.0590282634009,-8.21249188526161
3.72068619314177,-19.188265754372,-20.3527571075991,4.29946472790714,-6.48300159562675,-30.7184041582154,-9.70675804977822,56.5356663898266,-4.75918294876802,-16.3580820138672,-7.79856849277345
3.6788174790558,-19.0636356770931,-20.3634974616611,4.27075979646883,-6.27037461973921,-30.4618940850668,-9.64090345676082,56.136100710261,-4.66848421523999,-16.6612858911121,-7.36853201334442
3.63650956962066,-18.9384602842235,-20.3734696750344,4.24044623890882,-6.05820330732555,-30.2073997148087,-9.57303353401001,55.7316380143448,-4.57324543781221,-16.9671464399415,-6.92449232520565
3.59328627811922,-18.8133347251698,-20.3825165308225,4.20826364038199,-5.8464336319904,-29.9556547835449,-9.50341785888685,55.3231235718117,-4.47309089681926,-17.274181453352,-6.46846581033065
3.54877228933979,-18.6888245928083,-20.3905054780117,4.17401065925941,-5.63503452080403,-29.7073460212246,-9.43238432919795,54.9114102041119,-4.36780361162309,-17.5809648393515,-6.00234647461186
3.50269320189622,-18.5654607575649,-20.3973313315411,4.13754548600097,-5.42399742826246,-29.46311052937,-9.36030811486473,54.497355287228,-4.25731049306655,-17.8861675651788,-5.52788281476298
3.45487258825456,-18.4437348799101,-20.4029186248475,4.09878505734503,-5.21333568405553,-29.2235331343141,-9.28759933814272,54.0818175403512,-4.14166705030155,-18.1885928265025,-5.04666090906199
3.40522682401635,-18.3240956306656,-20.4072234961711,4.05770318437391,-5.00308383371092,-28.9891436889167,-9.21469005638698,53.6656535344043,-4.02104216057552,-18.4872040130808,-4.56009394942284
3.35375816263408,-18.2069456452778,-20.4102349855865,4.01432776712433,-4.79329714818595,-28.7604143517488,-9.14202113049515,53.2497138607781,-3.89570333173569,-18.7811444879403,-4.06941817868992
3.30054627517303,-18.0926392328419,-20.4119756285306,3.96873727188552,-4.58405142511316,-28.5377569217584,-9.07002953280583,52.8348389127035,-3.76600279500699,-19.0697486774821,-3.57569493725864
3.24573827086725,-17.9814808525832,-20.4125012482704,3.92105664193779,-4.37544314453047,-28.3215203491734,-8.99913658770167,52.4218542500463,-3.63236466688488,-19.3525444642541,-3.07981827851683
3.18953708676222,-17.873724358955,-20.4118998726313,3.87145279864002,-4.1675899814712,-28.1119885769279,-8.92973755115095,52.0115655453169,-3.49527332634232,-19.629247334466,-2.58252741745186
3.13218809830032,-17.7695730017636,-20.4102897297753,3.82012986816661,-3.9606316233182,-27.9093788862364,-8.86219282813464,51.6047531447409,-3.35526307412038,-19.8997471243612,-2.08442314411099
3.07396386331106,-17.669180151165,-20.4078163140638,3.76732424346313,-3.75473079672776,-27.7138409230521,-8.79682101252398,51.2021663204969,-3.21290907064275,-20.1640885273737,-1.58598725127989
3.01514706660189,-17.5726507000115,-20.4046485570842,3.71329956717857,-3.55007438042348,-27.5254565690154,-8.73389382865818,50.8045173327029,-3.06881947928201,-20.422446756788,-1.08760398143763
2.95601196817277,-17.4800430784256,-20.4009741920558,3.65834170381127,-3.3468744664282,-27.3442407897076,-8.67363296596087,50.4124754542993,-2.92362866986764,-20.6750998729653,-0.589582492543022
2.89680495033666,-17.3913717995586,-20.3969944592226,3.602753758174,-3.1453692302796,-27.1701435443275,-8.61620872599363,50.0266611323141,-2.77799127114828,-20.9223992608085,-0.0921793787768225
2.83772507058323,-17.306610444753,-20.3929183569035,3.54685118999696,-2.94582347664593,-27.0030527791803,-8.56174034283192,49.6476404647946,-2.63257681232985,-21.1647396032428,0.404379635883385
2.77890580947316,-17.2256949936969,-20.3889566869398,3.49095706826053,-2.74852873867847,-26.8427984619785,-8.51029779376706,49.275920169178,-2.48806467219565,-21.4025294817371,0.899879573635804
2.72039940116295,-17.1485274113968,-20.3853161650407,3.43539750203643,-2.55380282728997,-26.6891575573226,-8.46190488953427,48.9119432124346,-2.34513906378316,-21.6361634883313,1.39409817776642
2.66216519535711,-17.0749794174479,-20.3821938602873,3.38049727764973,-2.36198875035311,-26.5418598079534,-8.41654341982777,48.5560852718266,-2.2044838200306,-21.8659964963266,1.88679024015392
2.60406338450231,-17.0048963808682,-20.3797721951501,3.32657572678372,-2.17345295131207,-26.4005941753478,-8.37415812596043,48.2086521992865,-2.06677680140496,-22.0923205413897,2.37767425133727
2.54585512587954,-16.9381013014646,-20.3782146867251,3.27394284805424,-1.98858285107104,-26.2650157998887,-8.3346622729014,47.8698786689357,-1.93268380848209,-22.3153446279497,2.86642112649601
2.48720961616426,-16.874398853164,-20.3776625524037,3.22289570513812,-1.80778371305841,-26.1347533552785,-8.29794359554601,47.5399281897372,-1.80285194245668,-22.5351776955569,3.35264465739793
2.42771809154715,-16.8135794746811,-20.3782322465262,3.17371512648448,-1.63147488342108,-26.0094166896598,-8.26387040101639,47.2188946579564,-1.67790241406032,-22.7518149446023,3.83589335267735
2.36691410958483,-16.7554234976511,-20.3800139436139,3.12666273379429,-1.4600854822935,-25.888604666465,-8.23229762292988,46.9068056056952,-1.55842286372597,-22.9651277209949,4.31564343534569
2.30429890608286,-16.6997053010643,-20.3830709428552,3.08197832779925,-1.29404963911838,-25.7719131383162,-8.20307264570902,46.6036272755507,-1.4449593296054,-23.174857178527,4.79129293025951
2.23937018422617,-16.6461974736552,-20.3874399405812,3.03987765927046,-1.13380137900828,-25.6589430010877,-8.17604074609773,46.3092716210496,-1.33800808084879,-23.3806119349985,5.26215693898707
2.17165242673114,-16.5946749551486,-20.3931321015103,3.00055060927421,-0.979769279672896,-25.5493082780258,-8.15105003224276,46.0236052972702,-1.23800760932481,-23.5818698658209,5.72746430662964
2.10072673117812,-16.5449191162634,-20.4001348507497,2.96415979456112,-0.832371027627743,-25.4426441758942,-8.12795579274313,45.7464606616236,-1.14533113573283,-23.7779840234565,6.18635590634815
2.02625822701838,-16.496721728601,-20.4084143014563,2.9308396023193,-0.692008006503114,-25.3386150414826,-8.10662419373697,45.4776487487495,-1.0602800353769,-23.9681924675518,6.63788471634673
1.94801929155093,-16.4498887699158,-20.4179182244567,2.90069564600172,-0.559060050087865,-25.2369221351105,-8.08693528019185,45.216974119,-0.983078624479044,-24.1516315967155,7.0810177771893
1.8659069859761,-16.4042440077505,-20.4285794559269,2.87380462397762,-0.433880490330638,-25.1373111325731,-8.06878525055773,44.9642514115959,-0.913870762880973,-24.3273524412756,7.51464002846306
1.77995333254361,-16.3596323049479,-20.4403196290689,2.8502145578075,-0.316791627139318,-25.0395792650773,-8.05208798368197,44.7193233623579,-0.852718710664417,-24.4943393449093,7.93755996036555
1.69032721765989,-16.3159225946247,-20.453053106936,2.82994538703872,-0.208080742283871,-24.9435820014493,-8.03677580373413,44.4820799723338,-0.799604613465447,-24.6515305494957,8.34851700335524
1.59732682523782,-16.273010480117,-20.4666909876323,2.81298990004154,-0.107996772540507,-24.8492391648012,-8.02279947440236,44.2524784428036,-0.754434882302612,-24.7978403753921,8.74619062636541
1.50136160077745,-16.2308204260082,-20.4811450529362,2.79931498199484,-0.0167477448471718,-24.7565403562768,-8.01012742072852,44.0305634327759,-0.717047588874697,-24.932182868614,9.12921119594201
1.40292287712963,-16.1893075176069,-20.4963315392478,2.78886315945868,0.065500943773592,-24.6655495328443,-7.99874418818311,43.816487154468,-0.687222834688206,-25.0534968653778,9.49617272439665
1.30254255964199,-16.1484587770324,-20.5121746236413,2.78155441651192,0.138627346493904,-24.5764085615511,-7.98864816659579,43.6105288045651,-0.664695891799745,-25.1607723783076,9.84564767390889
1.2007398254712,-16.1082940344339,-20.5286095321534,2.77728825265728,0.202552864061683,-24.4893395606693,-7.97984863391585,43.4131128348349,-0.649172772257767,-25.2530780831087,10.1762039466114
1.09795684518582,-16.0688663625827,-20.5455851882489,2.77594594987727,0.257241227345019,-24.4046458446867,-7.97236221047662,43.224825589605,-0.64034777651762,-25.329589514496,10.4864240220095
0.994486326625259,-16.0302620913444,-20.5630663275519,2.77739301560776,0.302696600897647,-24.3227113115379,-7.96620885256962,43.0464298700136,-0.637922505329631,-25.3896173773999,10.7749258931618
0.890396469299967,-15.992600425038,-20.5810350141554,2.78148176772387,0.338960869036506,-24.2439981405621,-7.96140754749586,42.8788770181945,-0.641625791909281,-25.4326351735235,11.0403850912636
0.785463046146163,-15.9560326907843,-20.5994915068019,2.78805402330722,0.366110192225833,-24.1690427051994,-7.95797189606357,42.7233161467637,-0.651234008530273,-25.45830516317,11.2815568039421
0.679124796920121,-15.9207412498032,-20.6184544410746,2.79694384225595,0.384250950164396,-24.0984496430125,-7.95590578028454,42.5811001714984,-0.666591206358916,-25.4665015223189,11.4972969636264
0.570491501392939,-15.886938105602,-20.6379603170519,2.8079802604966,0.39351521753849,-24.0328840625474,-7.95519931237374,42.4537883385845,-0.687628545226338,-25.4573294066836,11.6865812227744
0.458474631127621,-15.8548632425711,-20.6580623092341,2.82098993094882,0.394055944869365,-23.9730618979562,-7.95582524605461,42.3431449718204,-0.714382455112889,-25.4311385220389,11.8485209208716
0.342289726847755,-15.8247827261804,-20.6788284417992,2.83579958140952,0.386042035230346,-23.9197384501066,-7.95773600495592,42.2511342000847,-0.747010944738332,-25.3885297685378,11.9823754373995
0.223713214641,-15.7969865927074,-20.7003391908503,2.85223820323222,0.369653514287833,-23.8736951834576,-7.96086144905272,42.1799104625477,-0.785807439381645,-25.3303536301211,12.0875606561242
0.123704796785284,-15.7717865524448,-20.722684583461,2.87013890264338,0.345076985958545,-23.8357248852343,-7.96510746058027,42.1318046292789,-0.831211492335593,-25.2576992686287,12.163653585322
0.15148569361084,-15.7495135253301,-20.7459608645394,2.88934037038635,0.312501552196241,-23.8066153350362,-7.97035538601702,42.1093056185839,-0.883815669482142,-25.1718737569413,12.2103934436976
0.295605808543237,-15.7305150217252,-20.7702668030507,2.90968794662172,0.272115356856569,-23.7871316746059,-7.97646232318169,42.1150374429908,-0.944367855477938,-25.0743714797917,12.2276797030394
