Finger Velocity,Scap_X,Scap_Y,Scap_Z,Shoulder horiz abd-adduction,Shoulder flexion-extension,Shoulder internal-external rotation,elbow flexion-extension,forearm pronation-supination,wrist flexion-extension,wrist radial-ulnar deviation
0.6930574910039,-15.2736441117074,-30.0119565248336,6.52205726274032,-23.3226523420447,-25.5632749504019,-21.7413174473483,70.2468100034274,-28.807137720585,-22.2647816870492,-20.2441102472899
0.710171205809209,-15.2704400565762,-30.0060951998745,6.48848476835764,-23.2620462739984,-25.6191685005755,-21.7058547016564,70.2482733765169,-28.7136254376103,-22.1489357831039,-20.3168800150642
0.772494778277645,-15.2679760299777,-29.9961307184569,6.45044659242174,-23.1961211853964,-25.6747990464225,-21.6663902176767,70.2556743030323,-28.6170352337834,-22.0432485343594,-20.3713038776581
0.889133387423571,-15.2660354058898,-29.9816726521333,6.4078356609728,-23.1248232612406,-25.7288310865915,-21.6230811952909,70.2696096596397,-28.5179919942195,-21.9508046650337,-20.4039024847436
1.06031946220954,-15.2643295026659,-29.9623688874482,6.36059568417295,-23.0481102898055,-25.7797850286643,-21.5761410854189,70.2905868496004,-28.4171605984819,-21.8746551904054,-20.4112974526436
1.28115907027924,-15.2624947161822,-29.9379128332598,6.30872553249629,-22.9659467799102,-25.8260512170973,-21.5258337305295,70.3190028423708,-28.315234060269,-21.8177323871189,-20.3903010225342
1.54577317601797,-15.2600912056945,-29.908049561564,6.25228285884667,-22.8782988466619,-25.8659076763177,-21.4724656222717,70.3551245630116,-28.2129206905642,-21.7827627499991,-20.3380060875787
1.84904772028553,-15.2566032710035,-29.8725807020853,6.19138686147361,-22.7851291467391,-25.8975413510154,-21.4163765134934,70.399071340738,-28.1109307039466,-21.7721812741645,-20.2518731737938
2.18681826273993,-15.2514415065812,-29.8313679634846,6.1262200830569,-22.686392143125,-25.9190725271715,-21.3579286998158,70.4508000718334,-28.0099627368796,-21.7880504609422,-20.1298109455057
2.55558416071578,-15.2439467605515,-29.7843352161233,6.05702913466855,-22.5820299504468,-25.9285820235087,-21.2974953392926,70.5100936586299,-27.9106907655998,-21.8319873191258,-19.9702469848846
2.9522064953362,-15.2333958686083,-29.731469135761,5.98412422711869,-22.4719689601509,-25.9241406556675,-21.2354482068405,70.5765531575927,-27.8137518964146,-21.9051013478893,-19.7721859442036
3.37369240177443,-15.2190090790806,-29.6728184646933,5.90787739633113,-22.3561173778974,-25.9038403973876,-21.172145287409,70.649593912591,-27.7197354542543,-22.0079460717733,-19.535252665945
3.81706135329232,-15.1999590376672,-29.6084919881838,5.82871933156812,-22.234363733399,-25.8658265981455,-21.1079186039996,70.7284457736136,-27.6291737236587,-22.1404861793308,-19.2597184832146
4.27927044560796,-15.1753811595759,-29.5386553465309,5.74713475789814,-22.1065763536858,-25.8083305692742,-21.0430626587065,70.812157318856,-27.5425346106897,-22.3020817310854,-18.946509612757
4.75717918288336,-15.14438518261,-29.4635268092385,5.66365638401644,-21.9726037306581,-25.7297018246257,-20.9778238413722,70.8996038240541,-27.4602164034937,-22.4914902922643,-18.5971972883624
5.24754036430211,-15.1060676662245,-29.3833721331555,5.57885749662873,-21.8322756679588,-25.6284392597677,-20.9123911344638,70.9894985724157,-27.3825447183961,-22.7068872415958,-18.2139700095086
5.74700834037198,-15.0595251782167,-29.298498618082,5.49334335499891,-21.6854050638647,-25.5032205741698,-20.8468884140798,71.0804069835545,-27.3097716307834,-22.9459038974551,-17.7995889592434
6.25215893952395,-15.0038678934124,-29.209248468598,5.40774160564936,-21.5317901747179,-25.3529292791602,-20.7813686104419,71.1707629665949,-27.2420769093822,-23.2056824456238,-17.3573282341772
6.75951723298936,-14.9382333192376,-29.1159915749886,5.32269199055571,-21.3712172025274,-25.1766786851935,-20.715809939765,71.2588868728357,-27.1795712006938,-23.482945947032,-16.8909019902715
7.26559044339204,-14.8617998623728,-29.0191178399389,5.23883565876415,-21.2034630581233,-24.9738323195215,-20.6501143497035,71.3430044378961,-27.1223009446856,-23.7740810115358,-16.4043809347969
7.76690400268112,-14.7737999581297,-28.9190291982799,5.15680441146325,-21.0282981702118,-24.7440202839614,-20.5841082362648,71.4212661616286,-27.0702547409773,-24.0752301125434,-15.9021008152608
8.26003920821894,-14.673532498363,-28.816131500579,5.07721021662784,-20.8454892439917,-24.4871511199005,-20.5175453999188,71.4917666698927,-27.0233708318795,-24.3823900238268,-15.3885656974441
8.74167121954119,-14.560374313523,-28.7108264546116,5.00063532304492,-20.6548019176601,-24.2034188087807,-20.4501121219077,71.5525637209092,-26.9815453374311,-24.691512532905,-14.868348891741
9.20860634594764,-14.4337904891281,-28.6035038393873,4.92762328384088,-20.4560033117396,-23.8933046105757,-20.3814341645437,71.6016966415411,-26.9446408812785,-24.9986035156375,-14.3459943742086
9.65781773391207,-14.2933433256068,-28.494534221649,4.85867116350726,-20.2488645051067,-23.5575735394943,-20.3110854340382,71.6372040896606,-26.9124952912842,-25.299816710668,-13.825921452025
10.0864786950459,-14.1386997817029,-28.384262410512,4.79422314697517,-20.0331629973822,-23.1972654018951,-20.2385979923904,71.6571411276684,-26.8849301390064,-25.5915390658385,-13.3123352327855
10.4919930324668,-13.969637273438,-28.2730018782402,4.73466569475002,-19.8086852267137,-22.8136804781166,-20.1634730669487,71.6595956521331,-26.8617589779857,-25.8704652174201,-12.8091451566544
10.8720218327628,-13.7860477312026,-28.1610303528411,4.68032429980265,-19.5752292020814,-22.4083601117944,-20.0851926818001,71.642704249758,-26.8427952284452,-26.133659406358,-12.3198934460658
11.2245062957534,-13.5879398464881,-28.0485867529164,4.63146180939997,-19.3326072809015,-21.9830626622593,-20.0032315227642,71.6046675389795,-26.8278597211635,-26.3786038770392,-11.847694873942
11.5476862762984,-13.375439468084,-27.935869589433,4.58827818849581,-19.0806490834605,-21.5397354576739,-19.9170686493482,71.5437650142042,-26.8167879524091,-26.6032334891382,-11.3951888194291
11.8401143116027,-13.148788136703,-27.8230369048448,4.55091152808182,-18.8192044961557,-21.0804835408551,-19.8261986887496,71.4583693455594,-26.8094371140184,-26.805956854292,-10.9645042031829
12.1006650032172,-12.9083397779784,-27.7102077596922,4.51944004659094,-18.5481466828689,-20.6075361145174,-19.730142194299,71.3469600126359,-26.8056929471444,-26.9856647644637,-10.5572375653202
12.3285397142435,-12.6545556072917,-27.5974652130248,4.49388479884058,-18.2673750024071,-20.123211659909,-19.6284549215323,71.2081360786073,-26.8054764270143,-27.1417269960507,-10.1744442578138
12.5232666279896,-12.3879973364158,-27.4848606773633,4.47421279849263,-17.9768177242457,-19.6298827164963,-19.5207358588045,71.0406278538428,-26.8087502250101,-27.2739787423331,-9.81664246996851
12.6846962933884,-12.1093188114232,-27.3724194629304,4.46034027767227,-17.6764344466158,-19.1299412699471,-19.4066339338536,70.8433071651756,-26.8155248221521,-27.3826979559219,-9.48382958937741
12.8129928538725,-11.8192562523037,-27.2601472624692,4.45213584924263,-17.366218146308,-18.6257656090574,-19.2858533965789,70.6151959430505,-26.825864076049,-27.4685748223415,-9.17551020477489
12.908621219326,-11.5186173041334,-27.1480372708837,4.44942339966921,-17.046196821667,-18.1196893936012,-19.1581579491945,70.3554728655298,-26.8398899833821,-27.5326745211806,-8.89073484663153
12.9723304946512,-11.208269142916,-27.0360775870868,4.45198461869424,-16.7164347239673,-17.6139735395198,-19.0233737525337,70.0634778553878,-26.8577863403732,-27.5763944349372,-8.62814830301708
13.0051340231404,-10.8891259018129,-26.9242585146089,4.45956115894826,-16.3770332047891,-17.1107813861787,-18.8813914733046,69.7387143105685,-26.8798009889357,-27.6014170411221,-8.38604604676811
13.008286438269,-10.5621356926886,-26.8125793710599,4.47185650336894,-16.0281312356111,-16.6121574666467,-18.7321675466662,69.3808490507854,-26.9062463496036,-27.6096598096797,-8.16243701609771
12.9832581440598,-10.228267494645,-26.7010544416976,4.4885376872126,-15.6699056768989,-16.1200100568703,-18.5757248112936,68.9897100728827,-26.9374979844725,-27.6032234610921,-7.95511076535709
12.9317076624362,-9.88849816966973,-26.5897177699588,4.50923706169696,-15.302571383986,-15.6360975369782,-18.4121526305978,68.5652823137748,-26.9739909976793,-27.5843398962541,-7.76170687961614
12.8554522968743,-9.5437998504474,-26.4786265608981,4.53355429184107,-14.9263812342711,-15.1620184668733,-18.2416065471216,68.1077017129176,-27.0162141566086,-27.5553210029687,-7.57978453186736
12.756437566309,-9.1951279295959,-26.3678630706649,4.5610587556964,-14.541626142762,-14.6992051704614,-18.0643074386581,67.6172479368784,-27.0647016979923,-27.5185094103903,-7.40689014907581
12.6367058629174,-8.84340986317878,-26.2575349544059,4.59129246699726,-14.1486350982148,-14.2489205471331,-17.880540073179,67.0943361661589,-27.1200228708644,-27.47623212788,-7.24062133359874
12.4983647834923,-8.48953498299908,-26.1477741360374,4.6237735907198,-13.7477752005505,-13.8122577864928,-17.6906509139705,66.5395083401877,-27.1827693658955,-27.4307578694397,-7.07868544767212
12.3435555779616,-8.13434549112617,-26.0387343394876,4.65800057010412,-13.3394516185811,-13.3901426447712,-17.4950450171557,65.9534242093339,-27.2535408851492,-27.3842587146654,-6.91895158827363
12.1744221514417,-7.77862878649832,-25.9305874797497,4.69345683899682,-12.9241073281594,-12.9833379367359,-17.2941818903083,65.3368524633871,-27.3329292061271,-27.3387765871034,-6.75949500920702
11.9930810489011,-7.42311124718196,-25.8235191530906,4.72961605711292,-12.5022224504371,-12.5924498965077,-17.088570233506,64.6906621133799,-27.4215011732225,-27.2961948615573,-6.59863332632175
11.8015928445055,-7.06845356246187,-25.7177234885586,4.76594777912768,-12.0743129997303,-12.2179360622667,-16.8787615511452,64.0158142174062,-27.5197810976019,-27.2582152692953,-6.43495405332386
11.6019353507634,-6.71524767658597,-25.6133976268078,4.80192345163873,-11.6409288725348,-11.8601143459212,-16.6653426955291,63.3133539741449,-27.6282330638001,-27.2263401469974,-6.26733320530786
11.3959790547029,-6.36401537162932,-25.5107360780929,4.83702262512771,-11.2026509571286,-11.5191729632029,-16.4489274759531,62.5844031652445,-27.7472436379406,-27.201859938575,-6.09494492493158
11.1854651776086,-6.01520848142478,-25.4099251832607,4.8707392715338,-10.7600873070848,-11.1951809242063,-16.2301475337721,61.8301529084029,-27.8771054603221,-27.1858457013025,-5.9172623317159
10.9719867386827,-5.6692106924252,-25.3111378665315,4.90258811102091,-10.3138683924314,-10.8880988169802,-16.0096427380693,61.0518566817268,-28.0180021909696,-27.1791462205348,-5.73405003436817
10.7569729780691,-5.32634085107042,-25.2145288335834,4.93211086989416,-9.86464151239739,-10.5977896520361,-15.7880513931652,60.2508235910866,-28.1699952591881,-27.1823892298655,-5.54534895548183
10.5416774574666,-4.98685766026983,-25.1202303373738,4.95888240906863,-9.41306451968013,-10.3240295683038,-15.5660005675819,59.4284118712955,-28.3330128403694,-27.1959861660735,-5.3514542965475
10.327170103775,-4.65096560823112,-25.0283486089355,4.98251667344214,-8.95979906537755,-10.0665182288891,-15.3440968567744,58.5860226345523,-28.5068414403237,-27.2201398500687,-5.15288762513788
10.1143333905014,-4.31882192956446,-24.9389610303972,5.00267241355461,-8.5055036237393,-9.82488875980732,-15.1229178803639,57.7250939003047,-28.6911204104109,-27.2548544784062,-4.95036419200512
9.90386276216627,-3.9905443533781,-24.8521141103853,5.01905862040234,-8.05082659233748,-9.59871711158925,-14.9030047876419,56.8470949551255,-28.8853396509153,-27.2999473432038,-4.7447566719434
9.69627129996728,-3.66621935297931,-24.7678223051043,5.03143959313669,-7.59639977884042,-9.38753075709316,-14.6848560033127,55.9535210971837,-29.0888406902318,-27.3550617673809,-4.53705656287532
9.49189850612062,-3.34591058576239,-24.6860677100715,5.03963953204156,-7.14283257369126,-9.19081667947101,-14.4689223932623,55.0458888168245,-29.3008212548545,-27.4196808324861,-4.32833447744945
9.29092295554909,-3.02966720536325,-24.6068006278078,5.04354652166579,-6.69070706785495,-9.00802864658925,-14.2556039728798,54.1257314528286,-29.5203433684312,-27.4931415778182,-4.1197005260396
9.09337843467142,-2.717531740165,-24.5299409971557,5.04311574563791,-6.240574312278,-8.8385938041996,-14.0452482210224,53.1945953434869,-29.7463449369932,-27.5746494543904,-3.91226592220411
8.89917306663283,-2.40954725698146,-24.4553806510837,5.03837175783003,-5.79295184043185,-8.68191864461613,-13.8381500018408,52.2540364625605,-29.9776546939338,-27.6632929115546,-3.70710684671471
8.70811081887627,-2.10576356062735,-24.3829863501654,5.02940962581366,-5.34832249731085,-8.53739442069127,-13.6345530341445,51.3056174927355,-30.2130102922555,-27.7580580632167,-3.50523149131233
8.51991470960846,-1.80624221807615,-24.312603516344,5.01639476328804,-4.90713454492857,-8.40440207912039,-13.4346527845515,50.3509052468427,-30.4510792378419,-27.8578434159282,-3.30755107360739
8.33425097928032,-1.51106024346622,-24.2440605671687,4.99956127989174,-4.46980294885304,-8.28231678431137,-13.238600600391,49.3914683079697,-30.6904822500748,-27.961474640449,-3.11485547551139
8.15075347362402,-1.22031234078657,-24.1771737282012,4.97920870296123,-4.03671169304465,-8.17051209545623,-13.0465088483874,48.4288747326853,-30.929818515815,-28.0677193420448,-2.92779401310911
7.96904749507766,-0.934111673789278,-24.1117521837841,4.95569697132484,-3.60821692165587,-8.06836384729098,-12.8584567921076,47.4646896512634,-31.1676921807648,-28.1753017521458,-2.74686169328941
7.78877241607164,-0.652589211302984,-24.0476034149542,4.92943966861603,-3.18465066885418,-7.9752537720239,-12.6744969274599,46.5004726032885,-31.4027393156929,-28.2829172321477,-2.57239114923781
7.60960240541685,-0.375891770585081,-23.9845385682632,4.90089554952368,-2.76632491522365,-7.89057288748702,-12.4946614996416,45.5377744625317,-31.6336545181756,-28.3892464414859,-2.40455027979712
7.4312646919646,-0.104178941749638,-23.9223777004449,4.87055850825213,-2.35353570491727,-7.81372466477139,-12.3189689440051,44.5781338292557,-31.859216271137,-28.4929689784282,-2.24334545691221
7.25355487212421,0.162380882163497,-23.8609547501738,4.83894623341108,-1.94656707063804,-7.74412797764423,-12.147430024816,43.6230728002021,-32.0783101834394,-28.5927762707511,-2.08863001580725
7.07634885518082,0.423615121074765,-23.8001220979871,4.80658787735569,-1.54569454020005,-7.68121982747782,-11.9800534859131,42.6740920650564,-32.2899492930156,-28.6873834876071,-1.94011760397078
6.89961112983551,0.679352012427356,-23.7397545880425,4.77401113289757,-1.15118803648214,-7.62445783262807,-11.8168510683934,41.7326653206944,-32.4932907255518,-28.7755402662731,-1.79739983396019
6.72339912619841,0.929425752347342,-23.6797529017328,4.74172915236451,-0.763314031798948,-7.57332246873655,-11.6578417836136,40.800233037946,-32.6876481687121,-28.8560401053152,-1.65996755473391
6.54786354082901,1.17368153974485,-23.6200461949647,4.7102277631135,-0.382336876327132,-7.52731904314582,-11.5030553504915,39.8781956566544,-32.8724998298618,-28.9277283789419,-1.52723492150359
6.37324459131103,1.41198031811831,-23.560593938166,4.67995343129056,-0.00851928233537415,-7.48597938163313,-11.3525347185481,38.9679063207918,-33.0474917728777,-28.9895090638227,-1.39856531246097
6.19986427545816,1.64420304394277,-23.5013869288015,4.65130240199545,0.357877996267892,-7.44886320101775,-11.2063376118146,38.0706632952505,-33.2124367530433,-29.0403503969191,-1.27329803809252
6.02811483318015,1.87025434711771,-23.4424474778674,4.62461139776919,0.716597202628936,-7.41555913951024,-11.064537049838,37.1877022286389,-33.3673088690842,-29.0792897571258,-1.15077474761554
5.85844375024279,2.09006548595689,-23.3838288022037,4.60015018957134,1.06738521540371,-7.38568542039804,-10.9272208298644,36.320188439417,-33.5122345173952,-29.1054380738601,-1.03036447693667
5.69133580453176,2.3035965350639,-23.3256136807641,4.57811627158799,1.40999565233929,-7.35889013587743,-10.7944899868717,35.4692094047396,-33.6474802585,-29.1179840320307,-0.911486404218097
5.52729283518775,2.51083777792199,-23.2679124526428,4.55863178304157,1.74419130178131,-7.33485115649547,-10.6664562873906,34.6357676261041,-33.7734382817495,-29.1161982855846,-0.793629572295635
5.36681210588563,2.71181030601178,-23.2108604466536,4.541742734683,2.06974675193822,-7.31327569518494,-10.5432388615241,33.8207740401225,-33.8906101745369,-29.0994378146532,-0.676369086780963
5.21036432142893,2.90656585187787,-23.1546149376305,4.52742051877349,2.38645110124106,-7.29389957902926,-10.4249601316439,33.0250421403939,-33.9995896663929,-29.0671504590747,-0.559378583624252
5.05837251998471,3.09518590507609,-23.0993517265011,4.51556561030741,2.69411065101662,-7.27648630047791,-10.3117412463548,32.2492829759978,-34.1010449338496,-29.018879537656,-0.442439049553996
4.91119317326239,3.27778017932487,-23.0452614434488,4.50601330455446,2.99255150029035,-7.26082592550083,-10.2036972652134,31.4941011891875,-34.1957009330504,-28.9542683392155,-0.32544433400767
4.76910085168459,3.45448451869696,-22.9925456783494,4.49854128175258,3.28162197581522,-7.24673392524328,-10.1009323580911,30.7599922463313,-34.2843220899431,-28.8730641792968,-0.208403872815691
4.63227772088982,3.62545835023891,-22.9414130490305,4.49287874210696,3.56119483406853,-7.23404997278076,-10.0035352809001,30.0473410017132,-34.3676955378654,-28.7751216779781,-0.091443226885868
4.50080890869629,3.7908818063984,-22.8920753217147,4.48871680960252,3.83116916812259,-7.22263671536453,-9.91157536663389,29.356421714486,-34.4466149670078,-28.6604049277317,0.0251969748505209
4.37468441366785,3.95095264746511,-22.8447436946373,4.48571985963618,4.09147194892338,-7.21237850404935,-9.82509922908301,28.687399614612,-34.5218650617355,-28.5289882611255,0.141163182185416
4.25380773572735,4.10588310729381,-22.7996253430374,4.48353738623496,4.34205913568015,-7.20318004354706,-9.74412831963644,28.0403340815654,-34.5942064696808,-28.3810553717119,0.255991772197538
4.13801083734951,4.25589676415463,-22.7569203030993,4.48181599747647,4.58291630644483,-7.19496491807915,-9.66865741146618,27.4151834568898,-34.6643612777543,-28.216896584218,0.369112343469342
4.02707445081913,4.40122550636581,-22.7168187483032,4.48021112077684,4.81405878357525,-7.18767395177028,-9.59865401882906,26.8118114589689,-34.732999056185,-28.036904124358,0.479851334779554
3.92075220129153,4.54210662538565,-22.6794986881479,4.47839801614272,5.03553125195713,-7.18126336994554,-9.53405869945027,26.2299951136476,-34.8007236512598,-27.8415653158907,0.587435974734418
3.81879658074678,4.67878003286042,-22.6451240975186,4.47608173238838,5.24740688379556,-7.17570273783477,-9.47478613756484,25.6694340706056,-34.8680610309262,-27.6314537376005,0.69099867748669
3.72098453190583,4.8114855670363,-22.6138434633134,4.47300569328995,5.44978599016755,-7.17097266782409,-9.42072686401947,25.1297611499084,-34.9354485836173,-27.4072185009291,0.789582083708324
3.62714030850202,4.94046033082956,-22.5857887113923,4.46895866337708,5.64279421997211,-7.167062309404,-9.37174943867209,24.6105539506277,-35.0032263162871,-27.1695719478165,0.882145009999737
3.53715337156461,5.06593599002563,-22.5610744520239,4.46377991342247,5.82658032883071,-7.16396666752004,-9.32770290222449,24.1113473418876,-35.0716303847557,-26.9192762074111,0.967569624901526
3.45098934807061,5.18813595606738,-22.539797459011,4.45736248055375,6.00131354989054,-7.16168383033434,-9.28841930435786,23.6316466377148,-35.1407893275786,-26.6571291821599,1.04467021739206
3.36869250106306,5.30727238519026,-22.5220362813979,4.44965449431517,6.16718061575288,-7.16021221921797,-9.25371613720971,23.1709412278085,-35.2107232848173,-26.3839506456158,1.11220394768749
3.29037872548863,5.42354294678581,-22.5078508819184,4.44065861503024,6.32438250134485,-7.15954799532339,-9.22339854799141,22.7287183966749,-35.2813463851433,-26.1005692058675,1.16888395056005
