Finger Velocity,Scap_X,Scap_Y,Scap_Z,Shoulder horiz abd-adduction,Shoulder flexion-extension,Shoulder internal-external rotation,elbow flexion-extension,forearm pronation-supination,wrist flexion-extension,wrist radial-ulnar deviation
0.9591312923007,-18.2197711996665,-19.741767781993,7.6297308905829,-14.8712152353522,-37.1155229666861,-12.1572155990091,63.0329016508886,-22.0782422732294,-21.5320099394769,1.20720010345921
1.1649694639276,-18.2256348015778,-19.7424544606182,7.61645879742167,-14.8662071466698,-37.1063875771878,-12.1320571203484,63.0421362944172,-21.7532887509067,-21.0919272202372,0.760127845939328
1.38864253645369,-18.2323467844776,-19.7418138550768,7.59966636162049,-14.8545271565191,-37.1024616025103,-12.1029468796698,63.0543036419376,-21.4125799869997,-20.639556168451,0.291282612684131
1.62791025767609,-18.2400023669548,-19.7396826712526,7.57899789155646,-14.8353903658437,-37.1041333568181,-12.0697480711758,63.0693989202165,-21.0569257107846,-20.1797176480358,-0.195815558236102
1.88055106383166,-18.2487006778782,-19.7359033544446,7.55411334003253,-14.8080219882765,-37.1117030361588,-12.0323510693006,63.0873378584311,-20.687209934028,-19.717592257378,-0.697310584989093
2.14426103668332,-18.2585426582153,-19.7303274372706,7.52469509309469,-14.7716660700782,-37.1253705292022,-11.9906762275638,63.1079503761962,-20.3043867907149,-19.2586139443357,-1.20910322395939
2.41660995936193,-18.2696285372513,-19.7228189319675,7.49045470947667,-14.7255941934766,-37.1452247257565,-11.9446764860042,63.1309757161375,-19.9094780468199,-18.8083504856503,-1.72695410225731
2.69502991580568,-18.2820548830235,-19.7132576796727,7.45113945652425,-14.6691140891792,-37.1712346540707,-11.8943396892295,63.1560592290889,-19.50357197592,-18.3723750040347,-2.24659215135593
2.97682367062502,-18.2959112411153,-19.7015425759844,7.40653849036229,-14.6015780827415,-37.2032427364362,-11.8396905302277,63.1827509720644,-19.087823127203,-17.9561335585625,-2.76382294784197
3.25918587587934,-18.3112763943005,-19.6875945994166,7.3564885332839,-14.5223912944308,-37.2409604034547,-11.7807920529248,63.2105062263453,-18.663452385051,-17.564814262618,-3.2746312424285
3.53923303524993,-18.3282142963364,-19.6713595747345,7.30087890969391,-14.4310195037045,-37.283966254123,-11.7177466598547,63.2386879879145,-18.2317466393364,-17.203223329056,-3.77527234114216
3.81403961359136,-18.3467697552842,-19.6528106054389,7.23965581358373,-14.3269965787478,-37.3317068933392,-11.6506965773592,63.2665714243639,-17.7940573589287,-16.8756730472702,-4.26234791928111
4.08067843064195,-18.3669639649712,-19.6319501078172,7.17282569555859,-14.2099313598388,-37.3835005222651,-11.5798237334143,63.2933502281604,-17.3517973918315,-16.5858860934959,-4.73286311032923
4.33626387251733,-18.3887900068314,-19.6088113734542,7.10045767579553,-14.0795138740788,-37.4385433008762,-11.5053490078043,63.3181447243037,-16.9064354023752,-16.3369197889105,-5.18426311471946
4.57799666922306,-18.4122084659705,-19.5834595815162,7.02268491046241,-13.9355207503985,-37.4959184439786,-11.4275308234134,63.3400115144214,-16.4594874897761,-16.1311129186846,-5.6144489872663
4.8032091116821,-18.4371433222179,-19.5559921815329,6.93970486184545,-13.777819699363,-37.5546079489346,-11.3466630607667,63.3579543679073,-16.0125056988891,-15.9700565333336,-6.02177361756539
5.0094096661198,-18.4634782865777,-19.5265385764169,6.8517784456066,-13.6063729228059,-37.6135067832713,-11.2630722944628,63.3709360151958,-15.567063321496,-15.8545888808058,-6.40502013558884
5.19432601349603,-18.4910537532036,-19.4952590566912,6.7592280519961,-13.4212393249745,-37.6714392836455,-11.1771143686635,63.3778904684629,-15.1247370909697,-15.7848133751342,-6.76336597072052
5.35594561148936,-18.519664525935,-19.4623429676511,6.6624344611062,-13.2225754119559,-37.7271774396088,-11.0891703491725,63.3777354950638,-14.6870865921205,-15.7601373583854,-7.09633650749131
5.49255295396167,-18.5490584591608,-19.4280061231532,6.56183269406914,-13.0106347911639,-37.7794606663246,-10.999641911841,63.3693848965705,-14.2556314292097,-15.7793284521486,-7.40375263607787
5.60276279132843,-18.5789361287241,-19.3924875060314,6.45790686122506,-12.7857662165928,-37.8270166189047,-10.9089462493096,63.3517602954569,-13.8318268940914,-15.8405846867344,-7.68567638301539
5.68554867551258,-18.6089516206046,-19.3560453167056,6.35118408435848,-12.54841016536,-37.8685825692966,-10.8175105965207,63.323802195498,-13.4170390258291,-15.9416144356618,-7.94235821271044
5.74026630377899,-18.6387144921677,-19.3189524549167,6.24222758360655,-12.2990939741848,-37.9029268496378,-10.7257664867955,63.2844801538874,-13.0125200343908,-16.0797223892634,-8.17418866531758
5.76667125358751,-18.6677929228137,-19.2814915492501,6.13162903166273,-12.0384256099527,-37.9288698577028,-10.6341438543184,63.2328019765187,-12.6193850716015,-16.2518982028367,-8.3816559708632
5.76493082080427,-18.6957180303173,-19.2439496825886,6.02000028947369,-11.7670861955556,-37.9453041201366,-10.5430650981643,63.1678219178912,-12.2385912837444,-16.4549049168734,-8.56531034057613
5.73562978941599,-18.7219892895261,-19.206612991433,5.90796464928865,-11.4858214584965,-37.9512129226228,-10.4529392216021,63.0886479300708,-11.870919987416,-16.6853646966305,-8.72573489685615
5.67977006323684,-18.7460809537892,-19.1697613371775,5.79614772316312,-11.1954323117517,-37.9456870477801,-10.3641561620704,62.994448057772,-11.5169626840554,-16.9398398421912,-8.86352271342762
5.59876416698503,-18.7674493478144,-19.1336632552239,5.68516812803273,-10.8967648092299,-37.9279392132129,-10.2770814329306,62.8844561145781,-11.1771114742949,-17.2149073771493,-8.97925919099253
5.49442265977623,-18.7855408754925,-19.0985713817209,5.57562813044864,-10.5906997351595,-37.8973158732206,-10.1920512038601,62.7579767928123,-10.8515542556198,-17.5072258542124,-9.07350893976709
5.36893547814672,-18.7998005698535,-19.0647185377781,5.46810442171471,-10.2781420827149,-37.8533061337415,-10.1093679457999,62.6143903526081,-10.5402748953331,-17.813593340001,-9.1468064063973
5.22484711267938,-18.8096810047837,-19.0323146194807,5.36313919617776,-9.96001065479739,-37.7955476235587,-10.0292967555641,62.4531570072483,-10.2430583812481,-18.1309958722331,-9.19964960218469
5.06502529241572,-18.8146513861301,-19.0015444015475,5.26123170372978,-9.63722798927701,-37.7238292601242,-9.95206245696852,62.2738210810532,-9.95950078083428,-18.4566460220849,-9.2324964189317
4.89262247464968,-18.8142066394583,-18.9725663158125,5.16283044445571,-9.31071078122531,-37.6380909434818,-9.87784755297073,62.0760149723363,-9.68902369278113,-18.788011527151,-9.24576313827051
4.71102889529778,-18.8078763121206,-18.9455122174805,5.06832616848478,-8.9813609470955,-37.5384203032539,-9.80679107656007,61.8594629122392,-9.4308927485738,-19.122834260496,-9.23982483969917
4.52381524109196,-18.7952331100036,-18.9204881069236,4.97804583462742,-8.65005744762054,-37.425046705355,-9.73898835442797,61.6239844718475,-9.18423960626982,-19.4591400532144,-9.21501747955661
4.33466224742206,-18.7759008949317,-18.8975757340838,4.89224766441456,-8.31764895773516,-37.2983327918667,-9.67449165715817,61.3694977356712,-8.94808676949736,-19.7952400960097,-9.17164143546725
4.14727392720599,-18.7495619763904,-18.8768349760643,4.81111740419765,-7.98494744768705,-37.1587638765742,-9.61331166901504,61.0960220330042,-8.72137446768994,-20.1297248242337,-9.10996628539044
3.96527112211968,-18.715963542071,-18.8583068479754,4.73476588135988,-7.65272272219137,-37.006935548619,-9.55541967753104,60.8036801053806,-8.50298876414776,-20.4614513445973,-9.03023653183527
3.79206329745494,-18.6749230890253,-18.8420169854887,4.66322791563854,-7.32169795027888,-36.8435398494725,-9.50075036182908,60.4926995910395,-8.29179003353999,-20.7895255721377,-8.93267792112168
3.63069976625642,-18.6263327425456,-18.8279794252682,4.5964626236089,-6.99254620162939,-36.6693503907674,-9.44920504793737,60.1634137236381,-8.08664097711452,-21.1132802901395,-8.81750397580685
3.48370737972836,-18.5701623808931,-18.816200504504,4.53435513162555,-6.6658879837783,-36.4852067791285,-9.40065529710637,59.8162611664631,-7.88643341396105,-21.4322503239239,-8.68492236336325
3.35292978644645,-18.5064615167084,-18.8066827015306,4.47671968854589,-6.34228975109301,-36.2919987097193,-9.3549466973434,59.4517849282093,-7.69011318378317,-21.7461459488758,-8.5351407544369
3.23939159164554,-18.4353599173988,-18.799428244771,4.42330414411005,-6.02226333476562,-36.0906500794559,-9.31190273614875,59.0706303273506,-7.49670260824247,-22.0548255338234,-8.36837188497038
3.1432153132396,-18.3570669759655,-18.7944423243942,4.37379573122491,-5.70626622616612,-35.8821034534071,-9.27132864101531,58.6735419885361,-7.3053200751047,-22.358268239399,-8.18483765524023
3.06361573985507,-18.2718698710267,-18.7917357466766,4.32782805858861,-5.39470263412929,-35.6673051977119,-9.2330150846205,58.2613598673739,-7.11519641635817,-22.6565473688122,-7.98477226644204
2.99898342191384,-18.1801305808794,-18.7913268743864,4.28498918298995,-5.08792522846034,-35.4471915722962,-9.19674166917792,57.8350143104155,-6.92568782693873,-22.9498047721986,-7.76842453959911
2.94704969880567,-18.082281840597,-18.7932427015551,4.24483059056559,-4.78623747559977,-35.2226760566196,-9.16228013345011,57.3955201686022,-6.73628510734123,-23.2382265866807,-7.53605961641401
2.90510722102492,-17.978822151007,-18.7975189237501,4.20687687812819,-4.48989646741147,-34.9946381605058,-9.12939726255995,56.9439700009943,-6.54661903142309,-23.5220205457039,-7.28796021309192
2.87024981504166,-17.8703099612163,-18.8041988899383,4.17063589408817,-4.19911613985557,-34.7639139469134,-9.09785751286757,56.4815264326456,-6.35646167626913,-23.8013950826217,-7.02442752705536
2.8395968155786,-17.7573571503851,-18.8133313621233,4.1356090776422,-3.91407077460414,-34.5312884570987,-9.06742537994036,56.0094137582948,-6.16572363194395,-24.0765404751324,-6.74578179784165
2.81047708814307,-17.6406219290637,-18.8249670658301,4.10130172883178,-3.63489867587815,-34.2974901734377,-9.03786753526606,55.5289089020492,-5.97444713988023,-24.3476123211382,-6.45236240642624
2.78056125984958,-17.520801266168,-18.8391540870508,4.06723295281293,-3.36170592148166,-34.0631875802139,-9.00895474589982,55.0413318488952,-5.78279537127972,-24.6147176625262,-6.14452730842539
2.74794212988479,-17.3986229270927,-18.8559322548033,4.03294504688502,-3.09457010220833,-33.8289877945811,-8.98046358247919,54.5480356605,-5.59103822212876,-24.8779040354845,-5.8226515862108
2.71117039895644,-17.2748371863018,-18.8753267365177,3.99801213266229,-2.83354398186211,-33.5954371483751,-8.95217792226736,54.0503961817798,-5.39953514635909,-25.1371516231376,-5.48712496914539
2.66925575416546,-17.1502082601812,-18.8973411593118,3.96204787172768,-2.5786590228238,-33.3630235148873,-8.92389026516158,53.5498015412529,-5.20871566695166,-25.3923685561304,-5.13834827233295
2.62164325647589,-17.0255054986458,-18.9219506466023,3.9247121361076,-2.32992872485545,-33.1321800981607,-8.89540289551372,53.0476415489746,-5.01905830044782,-25.6433892810819,-4.77672882735957
2.56817336309278,-16.9014943796979,-18.9490952176269,3.8857165331139,-2.08735172036052,-32.9032903388692,-8.86652893408522,52.5452970994578,-4.8310687031789,-25.889975796947,-4.4026751424584
2.50903186171748,-16.7789273682873,-18.9786740270925,3.84482870987195,-1.85091456648056,-32.6766935446268,-8.83709333083961,52.044129690964,-4.64525788713336,-26.131821424343,-4.01659125632978
2.44469410880643,-16.6585347251345,-19.0105409139674,3.80187538970746,-1.6205941817219,-32.4526908294666,-8.80693385181182,51.5454711744112,-4.46212134602339,-26.3685566120272,-3.61887151810076
2.37586650139101,-16.5410153782068,-19.0445016770233,3.75674412055865,-1.3963598935654,-32.2315509540551,-8.77590211107818,51.0506138432672,-4.28211986895194,-26.599756135321,-3.20989674539528
2.30342711728107,-16.4270279959162,-19.0803133998477,3.70938374187451,-1.17817508876177,-32.0135157024529,-8.74386469113468,50.5608009717982,-4.10566270013916,-26.8249469814262,-2.79003276990152
2.22836688610226,-16.3171824244538,-19.1176860150588,3.65980359957437,-0.965998484457851,-31.7988045162698,-8.71070438435795,50.0772179077834,-3.93309354103888,-27.0436163024109,-2.35963222428025
2.15173243128013,-16.212031670162,-19.1562861392407,3.60807155971197,-0.759785062586823,-31.5876182241726,-8.67632157695311,49.6009838314405,-3.76467971162703,-27.2552190370313,-1.91904009329478
2.07457177575176,-16.1120646193623,-19.1957430464531,3.55431089242476,-0.559486729903221,-31.3801418338167,-8.64063578376094,49.1331443056218,-3.60060461955189,-27.459185094218,-1.46860312913588
1.99788435323336,-16.0176996903092,-19.2356564988893,3.49869612019884,-0.365052781387257,-31.1765464733665,-8.60358732670585,48.6746647613882,-3.44096354713963,-27.6549262797584,-1.008682801167
1.92257711728287,-15.9292796037434,-19.2756060322144,3.44144794899548,-0.176430256556305,-30.9769906663781,-8.56513913377472,48.2264250835056,-3.28576265982096,-27.8418433764484,-0.539671081321071
1.84942886800142,-15.8470674396644,-19.3151612106792,3.38282742577787,0.00643571416701169,-30.7816211861471,-8.52527862059236,47.7892154752779,-3.13492105982572,-28.0193339198505,-0.0620081074323388
1.77906506705782,-15.7712441177224,-19.3538923340753,3.32312948854357,0.183601475392063,-30.5905737535593,-8.4840196007298,47.3637337836025,-2.98827564977264,-28.1868012248955,0.423799355321352
1.71194522384086,-15.7019073963639,-19.3913810996623,3.26267609324102,0.355124235463894,-30.4039738131455,-8.44140415277067,46.9505844485223,-2.84558852768367,-28.3436651168959,0.917159736150435
1.64836428571559,-15.6390724336293,-19.4272307869367,3.20180911544606,0.521061202998913,-30.221937556942,-8.39750435571957,46.5502792078763,-2.70655660426851,-28.4893746373514,1.41737977912364
1.58846832807282,-15.5826738957672,-19.4610756198481,3.14088323218317,0.681468414394857,-30.0445732853509,-8.35242379374503,46.163239641743,-2.57082311110007,-28.6234227691343,1.92364989021212
1.53228332992179,-15.5325695453795,-19.4925890500216,3.08025898789971,0.836399216873934,-29.8719831166176,-8.30629872578822,45.789801586904,-2.43799065083048,-28.7453629855138,2.43503254533026
1.4797541871956,-15.4885451944943,-19.5214907857471,3.02029623560033,0.985902399447749,-29.7042649927066,-8.25929881188806,45.4302213895504,-2.30763542532706,-28.8548271970909,2.95045450107785
1.43078967429414,-15.4503208734009,-19.5475524627252,2.96134811894328,1.13002000105127,-29.5415148835974,-8.21162728472893,45.0846838974609,-2.17932226413051,-28.9515444693434,3.46870345679515
1.38530809172732,-15.4175580440693,-19.5706019136913,2.90375572546537,1.268784869223,-29.3838290642445,-8.16352045299676,44.7533120282821,-2.05262006609169,-29.0353597154464,3.98842970022922
1.34327798409216,-15.3898676757439,-19.5905260441218,2.84784349871087,1.40221808716901,-29.2313063263497,-8.11524642591281,44.4361776972545,-1.92711726428536,-29.1062514320765,4.50815309783021
1.30474858089147,-15.3668189968318,-19.6072723596168,2.79391545314215,1.53032642195736,-29.0840499883518,-8.06710296169922,44.1333138505993,-1.80243692789434,-29.1643474528263,5.02627555594394
1.26986542038551,-15.3479487386377,-19.6208492183122,2.74225219597631,1.65309996320509,-28.9421695798533,-8.01941437325458,43.8447273286437,-1.67825111890249,-29.2099376728411,5.54109880605907
1.23886790263197,-15.3327706906681,-19.6313249013175,2.69310872853078,1.77051011617346,-28.8057820981027,-7.97252747418177,43.5704122708131,-1.55429411881382,-29.2434827692483,6.05084709486187
1.21206732210941,-15.3207853930835,-19.6388256083794,2.646712977137,1.8825080886176,-28.6750127595975,-7.92680661191153,43.3103637687326,-1.4303741323094,-29.2656181002618,6.55369411314326
1.18980637146612,-15.3114897995565,-19.6435324962483,2.60326498867662,1.98902397477473,-28.5499951953715,-7.88262790041396,43.0645914745439,-1.30638307969595,-29.2771521886534,7.04779327420967
1.17240421851463,-15.3043867539228,-19.6456778837967,2.56293671671819,2.08996650030261,-28.4308710618808,-7.84037282088079,42.8331328833131,-1.1823041393457,-29.2790594575,7.53131023817915
1.16009472328205,-15.2989941364335,-19.645540750545,2.52587232022875,2.18522345310897,-28.3177890591939,-7.80042139593265,42.6160660318036,-1.05821681448436,-29.2724671697262,8.00245637811099
1.15296833222206,-15.2948535490383,-19.6434416532835,2.4921888965734,2.27466278797596,-28.2109033645586,-7.76314515628008,42.413521385291,-0.934299466271561,-29.2586368120671,8.45952172721356
1.15092942811354,-15.2915384224729,-19.6397371778056,2.461977572264,2.35813435682303,-28.1103715055629,-7.72890010894625,42.2256927141196,-0.810829447235218,-29.2389404389707,8.9009058663609
1.15367940965604,-15.2886614400759,-19.6348140292357,2.43530487792427,2.43547218004337,-28.0163517170297,-7.69801989095415,42.052846792584,-0.688181151891282,-29.214832737811,9.32514523223338
1.16073150538444,-15.2858811843858,-19.629082847427,2.4122143381484,2.5064971390766,-27.9289998502509,-7.67080926210294,41.8953317866745,-0.566822443971721,-29.1878197921826,9.73093547009646
1.17145759373523,-15.2829079237244,-19.6229718172043,2.39272821158296,2.5710199421594,-27.8484659292971,-7.64753806106615,41.7535842330256,-0.447310000301313,-29.1594257054498,10.1171477338457
1.18516215154745,-15.2795084680011,-19.6169201296841,2.37684932014077,2.62884420116785,-27.7748904728431,-7.62843572105641,41.6281345447893,-0.330284127139404,-29.1311583894565,10.4828382323715
1.20117551971055,-15.2755100360154,-19.6113713414602,2.36456290752626,2.67976946140706,-27.7084007177075,-7.61368641406345,41.5196110059089,-0.2164635694966,-29.1044759007159,10.8272507843125
1.21895829912866,-15.2708030906378,-19.6067666726242,2.35583846605833,2.72359404708336,-27.649106889972,-7.60342486772181,41.4287422281152,-0.106640760678177,-29.0807546947894,11.1498126063113
1.23820990953648,-15.2653431140797,-19.6035382816077,2.3506314680915,2.76011761899874,-27.5970986706631,-7.59773287914938,41.3563580418102,-0.00167784904932686,-29.0612610492109,11.45012396479
1.25897554744836,-15.2591513138823,-19.6021025544058,2.34888493569516,2.78914338305658,-27.5524419959025,-7.59663653686273,41.3033887742686,0.0974963130950309,-29.0471266736396,11.7279426320602
1.28174545238569,-15.2523142709811,-19.6028534481609,2.35053078128094,2.81047993341897,-27.5151763160631,-7.60010415349556,41.2708628421627,0.189888223343791,-29.0393292104302,11.9831642905159
1.307537610268,-15.2449825621612,-19.6061559345003,2.3554908547564,2.82394275650336,-27.4853124139227,-7.60804490638964,41.2599025589973,0.274441036313483,-29.0386779759374,12.2158001241828
1.33794985893761,-15.2373684072217,-19.6123395960341,2.36367764240477,2.82935545536711,-27.4628308481895,-7.62030818044628,41.2717180399666,0.350035527120683,-29.0458049470371,12.4259528372931
1.37516148252342,-15.2297424038639,-19.6216924390692,2.37499458140521,2.82655077492519,-27.4476810488448,-7.6366836104765,41.3075990805741,0.415491271089768,-29.0611606946497,12.6137922703648
1.42186175185951,-15.2224294204967,-19.6344549956753,2.389335981631,2.81537151691336,-27.4397810488601,-7.65690183067429,41.3689048891116,0.469568710749787,-29.0850147337831,12.7795316730342
1.48108938553765,-15.2158037204467,-19.6508147979148,2.40658657985516,2.7956714314273,-27.4390177962913,-7.68063595571959,41.4570515637722,0.51097284045248,-29.1174596120099,12.9234055541821
1.55598710541742,-15.2102833923122,-19.6709013163307,2.4266207856828,2.76731616128179,-27.445247953593,-7.70750383810374,41.5734972233429,0.53835924199891,-29.1584180002882,13.0456498694739
1.64950619653305,-15.2063241614764,-19.6947814641913,2.44930170848722,2.73018429851125,-27.4582990595825,-7.73707116568044,41.7197247300739,0.550343152714451,-29.2076520838654,13.146485137661
1.7641225621281,-15.2044126575366,-19.7224557782038,2.47448007681245,2.68416859208149,-27.4779709072048,-7.7688554776877,41.8972219886072,0.545512146710931,-29.2647746681271,13.22610292143
