Finger Velocity,Scap_X,Scap_Y,Scap_Z,Shoulder horiz abd-adduction,Shoulder flexion-extension,Shoulder internal-external rotation,elbow flexion-extension,forearm pronation-supination,wrist flexion-extension,wrist radial-ulnar deviation
0.838557348557242,-17.6315911297427,-30.8047669695794,2.93268352634179,-23.2208265432505,-25.3121993806468,-19.4329826544975,70.2228081366542,-28.1881424232812,-24.5263383875582,-16.4472720093203
0.855148034259984,-17.6330138624497,-30.8272720690868,2.91174296349017,-23.1471003612338,-25.334445778974,-19.3974174946553,70.2977670708461,-28.0546188786203,-24.3073214369216,-16.6253879441736
0.935957565030721,-17.6324871053474,-30.848216197418,2.88831716288244,-23.0627685303532,-25.3481882055286,-19.355875287494,70.3782249557609,-27.9177573144268,-24.1099135695444,-16.7822252580469
1.09301983878926,-17.6293683428376,-30.8670818240982,2.86243142826521,-22.9671896001342,-25.3515890966195,-19.3081502792448,70.463332345389,-27.7789391425771,-23.9393052689823,-16.9128277490574
1.32439105553152,-17.6229374038268,-30.8833526162456,2.83415134852661,-22.8597671285591,-25.3427522182423,-19.2541028677289,70.552071137781,-27.6396074919852,-23.8004079557045,-17.0124531544738
1.6214215837408,-17.6123980743866,-30.8965254291311,2.80358379277713,-22.7399592745115,-25.319747913787,-19.1936645560335,70.6432656496812,-27.5012364978662,-23.6977062029763,-17.0767065308755
1.97519130681593,-17.5968813706786,-30.9061225410146,2.77087690102818,-22.6072883157838,-25.2806404244674,-19.1268414942381,70.7355987490073,-27.3652993623126,-23.6351175094998,-17.1016674829667
2.37850016228136,-17.5754505939319,-30.9117036933772,2.73621895594777,-22.4613498535472,-25.2235169056075,-19.0537163774761,70.8276327586565,-27.2332363959385,-23.6158648869155,-17.084006584208
2.82567907199898,-17.547108257386,-30.9128774755692,2.69983604817126,-22.3018214049314,-25.1465177369137,-18.9744484965436,70.9178345749075,-27.1064242638579,-23.6423669973512,-17.0210868507268
3.31198596041125,-17.5108049302819,-30.9093115920631,2.66198849652019,-22.1284700393086,-25.0478676961467,-18.8892717946597,71.0046041809814,-26.9861475848138,-23.7161500647758,-16.9110466681958
3.83312140591765,-17.4654499869216,-30.900741573337,2.62296605316616,-21.9411586928709,-24.925907528686,-18.7984908645528,71.0863055095589,-26.8735738767353,-23.8377851487525,-16.7528612513851
4.38492058498863,-17.4099241826706,-30.886977539115,2.58308200458793,-21.7398508072856,-24.7791253999602,-18.702474909584,71.1612984397595,-26.7697326259647,-24.0068534912043,-16.5463805822071
4.96317658993841,-17.3430939077996,-30.8679086938444,2.54266636352838,-21.5246129824736,-24.6061876668371,-18.6016497781626,71.227970615136,-26.6754990108721,-24.2219415376987,-16.2923427430492
5.56354943510778,-17.2638268986457,-30.8435053237817,2.50205842751294,-21.2956154059076,-24.4059683538723,-18.4964882553421,71.284767740399,-26.5915825627498,-24.4806660290601,-15.9923625094916
6.18152961983809,-17.1710091183372,-30.8138181652701,2.46159904733005,-21.0531299114565,-24.1775766791174,-18.3874988556839,71.3302210532035,-26.518520816968,-24.7797284007262,-15.6488958900016
6.81243689059683,-17.0635624609532,-30.7789751175351,2.42162299391238,-20.7975256175444,-23.9203819499987,-18.275213404274,71.3629707725713,-26.4566778034533,-25.114996670552,-15.265181964953
7.45144228113005,-16.9404628870538,-30.7391753762556,2.38245182586417,-20.5292621874337,-23.6340351467717,-18.1601737177587,71.3817844976563,-26.4062470502344,-25.4816120333697,-14.8451639165171
8.09360588411766,-16.8007585669856,-30.6946811644181,2.34438763989676,-20.2488808397689,-23.3184865283821,-18.0429177094031,71.3855697660424,-26.3672586306682,-25.8741165144783,-14.3933916310911
8.73392533274666,-16.6435875930183,-30.6458073329521,2.30770803562028,-19.9569933154702,-22.9739986308241,-17.9239652498416,71.3733802686102,-26.3395896807051,-26.2865972948833,-13.9149087729336
9.36739143200043,-16.468194824241,-30.5929091927158,2.27266255010198,-19.6542690782365,-22.6011540820835,-17.8038041255649,71.3444155403286,-26.3229777542154,-26.7128427351477,-13.4151278016415
9.98904823898988,-16.2739474490323,-30.5363690181656,2.23947072285841,-19.3414210885108,-22.2008577364182,-17.6828764528018,71.2980142811872,-26.3170363754639,-27.1465046619062,-12.8996970019146
10.5940554126794,-16.0603488847507,-30.4765817281107,2.20832184531731,-19.0191905409115,-21.7743327430423,-17.5615659221141,71.233641786223,-26.3212721841,-27.5812610783985,-12.3743641329658
11.1777509855385,-15.8270506774639,-30.4139402967759,2.1793763370808,-18.6883309884611,-21.3231103175684,-17.4401862606661,71.1508722576396,-26.3351031357417,-28.0109731405578,-11.8448416975902
11.7357129384795,-15.573862112548,-30.3488214753074,2.15276858158828,-18.3495922896504,-20.8490131789186,-17.3189712948778,71.0493670182964,-26.3578773009987,-28.4298301686752,-11.3166789727519
12.2638181350734,-15.3007572992272,-30.2815724067482,2.12861095382743,-18.0037048051416,-20.3541328391159,-17.1980669693033,70.9288498301199,-26.3888918795251,-28.8324768870973,-10.7951456808084
12.7582973197292,-15.0078795487047,-30.212498693652,2.10699869100869,-17.6513642443307,-19.840801168461,-17.0775256287604,70.7890806325772,-26.4274120996735,-29.2141182050786,-10.2851313495271
13.2157850232748,-14.695542925222,-30.1418544243492,2.08801520162973,-17.2932175287499,-19.3115568816407,-16.9573028080318,70.6298290505387,-26.4726897011469,-29.5705986513659,-9.79106301230064
13.6333633568567,-14.3642309090167,-30.0698345804495,2.07173738547216,-16.9298500101543,-18.7691077842175,-16.8372567082248,70.450848979481,-26.5239807028464,-29.8984556832167,-9.31684224566183
14.0085988154715,-14.0145921662399,-29.996570137767,2.05824055006087,-16.5617743598525,-18.2162897753564,-16.7171504797192,70.2518554450686,-26.5805621601827,-30.1949479547248,-8.86580110157663
14.3395713571899,-13.647433472324,-29.922126043793,2.04760255660127,-16.1894214282672,-17.656023718063,-16.5966573788998,70.0325047629847,-26.6417476369454,-30.4580608895772,-8.44067557174939
14.6248951730072,-13.2637098840864,-29.8465021181665,2.03990690389099,-15.8131333521666,-17.0912713573816,-16.4753688100823,69.7923788062403,-26.7069011654696,-30.6864925620045,-8.04359480521507
14.8637307140648,-12.8645123054207,-29.7696367886178,2.03524455177972,-15.4331591539315,-16.5249914828381,-16.3528051904369,69.5309739371136,-26.7754495399055,-30.8796231446874,-7.6760841999047
15.0557876961344,-12.4510526441707,-29.6914134509194,2.03371438454517,-15.0496530264981,-15.9600974913016,-16.2284294754929,69.2476948980451,-26.8468928673318,-31.037471209938,-7.33908053670126
15.2013189540924,-12.0246468140252,-29.6116691320173,2.03542230846423,-14.662675426945,-15.3994174151813,-16.1016630624263,68.9418537016927,-26.9208133719025,-31.1606400666162,-7.03295742688347
15.3011051702771,-11.5866958935801,-29.5302050443593,2.04047905921744,-14.2721970149094,-14.8456573468165,-15.971903665287,68.6126733375038,-26.9968824887927,-31.2502571293946,-6.75755944271408
15.3564306493287,-11.1386658127987,-29.4467985507815,2.04899685888346,-13.8781053770752,-14.3013690215614,-15.8385446460067,68.2592959392674,-27.0748662858526,-31.3079090703709,-6.51224335737687
15.3690504583279,-10.6820659913565,-29.3612160170276,2.06108510734415,-13.4802143837882,-13.7689221287169,-15.7009951962088,67.8807949444203,-27.1546292129415,-31.3355751898836,-6.29592493224207
15.3411493956586,-10.2184273981459,-29.273226014783,2.07684532023856,-13.0782759344609,-13.2504817115506,-15.5587007033032,67.4761907190338,-27.2361361136863,-31.3355610552294,-6.10712969459017
15.2752933968446,-9.74928053007087,-29.1826123513597,2.09636553910176,-12.6719937676789,-12.7479908070052,-15.4111626040502,67.0444691098905,-27.3194523618666,-31.3104340125447,-5.94404619349091
15.1743741332694,-9.27613381690226,-29.0891864406594,2.11971444438094,-12.261038939926,-12.2631582758444,-15.2579570326076,66.5846023991936,-27.4047419290131,-31.2629617158816,-5.80458032774662
15.0415477132351,-8.80045294688115,-28.9927985894973,2.14693540419151,-11.8450665164359,-11.797451596887,-15.098751612246,66.0955721626593,-27.4922631683477,-31.196054370367,-5.68640950134414
14.8801685570832,-8.32364157790702,-28.893347846937,2.17804069470733,-11.4237329762621,-11.3520942516553,-14.9333198223538,65.5763935585362,-27.5823621161283,-31.1127109972508,-5.58703555002295
14.693719690692,-7.84702385619104,-28.790790143507,2.2130061316886,-10.9967138162846,-10.9280672136435,-14.7615524882951,65.026140598919,-27.6754631605455,-31.0159697639049,-5.50383556092998
14.4857408836161,-7.37182911221917,-28.6851445245604,2.2517663527239,-10.5637208442984,-10.526113986778,-14.5834660771785,64.4439719747695,-27.7720570052327,-30.9088623143018,-5.43410985938376
14.2597562443544,-6.89917904496413,-28.5764973531187,2.29421098141775,-10.124518676215,-10.146748615533,-14.3992076227783,63.8291570243976,-27.8726859513342,-30.794372039025,-5.3751265766337
14.0192030649107,-6.43007764104609,-28.4650044208119,2.3401818850877,-9.6789399927973,-9.79026611239786,-14.2090562351338,63.1811014524581,-27.9779266297796,-30.6753962549614,-5.32416236226789
13.7673638623269,-5.96540400804332,-28.3508909614134,2.38947170593791,-9.22689916120766,-9.45675480743687,-14.0134212653999,62.4993724187488,-28.0883704289071,-30.5547122712816,-5.27853897281395
13.5073036716005,-5.50590823248637,-28.2344496116707,2.44182380281045,-8.76840388100553,-9.14611020420353,-13.8128372887848,61.7837226169127,-28.2046019807717,-30.4349472925608,-5.23565565063748
13.2418146722399,-5.05221030390585,-28.1160364115111,2.49693368787125,-8.3035645726174,-8.85805000795881,-13.6079561355922,61.0341129474948,-28.3271761899506,-30.318552064103,-5.19301739446304
12.9733701476264,-4.6048020753926,-27.9960649830359,2.5544519822923,-7.83260129033897,-8.59213006071385,-13.3995362433562,60.2507333546267,-28.4565944068981,-30.2077781166748,-5.14825939178673
12.7040895541213,-4.16405215639944,-27.874999075283,2.61398885075082,-7.35584801173035,-8.34776096654184,-13.1884296273352,59.4340213407899,-28.5932804604251,-30.1046584367923,-5.0991680024508
12.4357160983502,-3.73021355416717,-27.7533437063676,2.67511981109246,-6.87375422918421,-8.12422522090164,-12.9755667820697,58.5846776056998,-28.7375573665801,-30.0109913803864,-5.04369873504721
12.1696076876544,-3.30343379805813,-27.6316351725414,2.73739275749468,-6.38688384542105,-7.92069467218305,-12.761939843163,57.703678188123,-28.8896256139957,-29.9283276551452,-4.97999164961628
11.906741455524,-2.88376720102671,-27.5104302236039,2.80033598636618,-5.89591145089814,-7.73624814458521,-12.5485843617036,56.7922824454988,-29.0495439743684,-29.8579602167302,-4.90638456392712
11.6477313212111,-2.47118884159926,-27.3902947261429,2.86346697603582,-5.40161613558882,-7.56988904311808,-12.3365600756996,55.852036209221,-29.2172137899436,-29.8009169496666,-4.82142435580457
11.3928572916059,-2.06560979584496,-27.2717921487415,2.92630164435122,-4.90487305693211,-7.42056275160444,-12.1269311019152,54.8847695205678,-29.3923676424177,-29.7579560167531,-4.72387657091897
11.1421045353605,-1.66689311715916,-27.1554722035163,2.98836379101848,-4.40664304511057,-7.28717363048512,-11.9207460109235,53.8925884880889,-29.5745632074435,-29.7295637619841,-4.61273347499787
10.8952097323469,-1.27487005275878,-27.0418599653977,3.0491944222015,-3.90796057094505,-7.16860142561566,-11.7190182774182,52.8778610025694,-29.7631829450717,-29.7159550643084,-4.48722061160271
10.6517118862694,-0.889355996729143,-26.9314457680594,3.10836065419811,-3.40992042698046,-7.06371690848085,-11.5227076069998,51.8431962822211,-29.9574400689713,-29.7170760565963,-4.3468018400153
10.4110047161507,-0.51016570755066,-26.8246761479233,3.16546390314306,-2.9136634787535,-6.97139657613835,-11.3327026237977,50.7914184784986,-30.1563909761945,-29.7326091083197,-4.1911827694755
10.1723879111183,-0.137127362284055,-26.7219460758362,3.22014709075029,-2.42036183401106,-6.89053624333783,-11.1498053595443,49.7255348345616,-30.3589540068243,-29.7619799162606,-4.02031249980523
9.93511490834431,0.229904920803036,-26.6235926762039,3.27210063430565,-1.93120375637985,-6.82006336435711,-10.9747179202445,48.648699138772,-30.5639340508485,-29.8043664912108,-3.83438360708554
9.69843537860626,0.591040386621721,-26.5298905819356,3.32106704436801,-1.44737861902854,-6.75894793653132,-10.8080316337164,47.5641714402803,-30.7700521549122,-29.8587097967466,-3.63383035107842
9.46163120846079,0.946342987654382,-26.4410490110841,3.36684402415286,-0.970062155503405,-6.70621186654799,-10.6502189116719,46.475275178918,-30.9759789426791,-29.9237257919917,-3.41932511899687
9.22404538338771,1.295824894395,-26.3572105826782,3.40928604208875,-0.500402223881581,-6.66093672334187,-10.5016279964318,45.3853530148555,-31.1803703895429,-29.997918660054,-3.19177315267023
8.98510374323265,1.63944221399678,-26.2784518210108,3.4483044212669,-0.0395052648876733,-6.62226985246173,-10.3624806973708,44.2977227144433,-31.3819043183136,-30.0795950827953,-2.95230561947759
8.74433005630044,1.97709288588683,-26.2047852346082,3.48386604675089,0.411576387121825,-6.58942887883034,-10.2328731459413,43.2156344495621,-31.5793159284986,-30.1668795534068,-2.70227106699712
8.50135521557107,2.30861666315716,-26.1361628032987,3.51599083104964,0.851856187698239,-6.56170467001228,-10.112779507304,42.1422307939906,-31.771430746845,-30.2577308726963,-2.44322524707128
8.25592159017754,2.63379703990699,-26.0724806690849,3.54474810182025,1.2804239061461,-6.53846286511074,-10.0020584861665,41.0805105519709,-31.9571935869245,-30.3499601025497,-2.17691922454999
8.00788367125214,2.95236494353425,-26.0135848047419,3.57025208857526,1.69645483829279,-6.51914409587553,-9.9004623650177,40.033297339873,-32.135692410109,-30.4412503110765,-1.90528562179034
7.75720614675646,3.26400397529661,-25.9592774243258,3.59265669220705,2.09921757329558,-6.50326304093544,-9.80764822664616,39.0032135802004,-32.3061763512196,-30.5291784352279,-1.63042280652403
7.5039604440319,3.56835695377112,-25.9093238980448,3.61214972664969,2.48808021031106,-6.49040646304307,-9.72319094718005,37.9926602839706,-32.468067561934,-30.6112395291448,-1.35457681629974
7.24832061340928,3.86503349789364,-25.8634599397333,3.62894682539949,2.86251495870985,-6.48023038000612,-9.64659750085277,37.0038027203813,-32.6209668887614,-30.6848735719856,-1.08012083826211
6.99055921369096,4.15361838151369,-25.8213988500265,3.64328520209044,3.22210109226701,-6.47245650919598,-9.57732209031066,36.0385618266067,-32.7646537055117,-30.7474948726842,-0.809532138594021
6.73104362197812,4.43368039809447,-25.782838622606,3.65541744021185,3.56652625985014,-6.46686810379838,-9.5147816061973,35.0986110135681,-32.8990804436263,-30.7965239333695,-0.545366456941102
6.4702329452837,4.70478148760368,-25.7474687519301,3.66560546362984,3.89558618338069,-6.46330527149437,-9.4583709293286,34.1853778842534,-33.0243625055605,-30.8294214408924,-0.290230025997112
6.20867547581839,4.96648589425672,-25.7149766135969,3.67411481100887,4.20918279839748,-6.46165983979168,-9.40747761991799,33.3000503001432,-33.1407643153532,-30.8437238781765,-0.0467495182578175
5.9470064184527,5.21836914285798,-25.6850533173367,3.68120930704149,4.50732091171542,-6.46186981215656,-9.36149559040435,32.4435862017853,-33.2486822690518,-30.8370801106968,0.182459663484246
5.68594543656545,5.46002664293192,-25.6573989544802,3.6871461942005,4.79010346526063,-6.46391344867707,-9.3198374295097,31.6167265965755,-33.3486253120873,-30.8072882257994,0.394826265280902
5.42629341646309,5.69108175294474,-25.6317271776389,3.69217176409877,5.05772550909169,-6.46780300518098,-9.28194513368973,30.8200111507377,-33.4411938108579,-30.7523318879732,0.587856723395653
5.16892774267241,5.91119316205978,-25.6077690644829,3.69651751124496,5.31046700213896,-6.47357817426766,-9.24729910452363,30.0537958473058,-33.5270573197686,-30.6704155131779,0.759168881933746
4.91479530629814,6.12006147562108,-25.5852762342114,3.70039682374206,5.54868457560379,-6.48129928799437,-9.21542537631145,29.318272189892,-33.6069317859289,-30.5599976419266,0.906525449309245
4.66490243549316,6.31743492282219,-25.5640232068903,3.70400221887305,5.77280241072634,-6.49104036110665,-9.18590113121238,28.6134874423604,-33.681556689305,-30.419821974334,1.0278668071821
4.42030094241094,6.50311413757421,-25.5438090222948,3.70750311936817,5.98330239938045,-6.50288207019473,-9.15835862702966,27.939365400198,-33.7516725870592,-30.2489455874883,1.12134281153526
4.18206953226434,6.67695599255714,-25.5244581638699,3.71104414861061,6.18071377063083,-6.51690477328015,-9.13248770290495,27.2957271945782,-33.8179995121768,-30.0467638740512,1.18534321458066
3.95128993502455,6.83887648979461,-25.5058208599432,3.7147439082182,6.36560237617792,-6.53318167636699,-9.10803704638664,26.6823116383781,-33.8812166629249,-29.8130317350021,1.21852629567626
3.72901733071116,6.98885272858404,-25.4877728524267,3.71869419800363,6.5385598305413,-6.551772253119,-9.08481440813615,26.0987946372211,-33.9419438068413,-29.5478805421999,1.21984522991213
3.51624499237035,7.12692398405703,-25.4702147298965,3.72295964902628,6.70019269589586,-6.57271602443034,-9.06268594247769,25.5448072100758,-34.0007248045036,-29.2518303559212,1.18857164888661
3.31386362395374,7.25319193857154,-25.4530709192563,3.72757776098561,6.85111188583677,-6.59602680452643,-9.0415748373386,25.0199516947738,-34.0580136262322,-28.9257968399691,1.12431576569372
3.12261667341909,7.36782011488561,-25.4362884231255,3.73255935650667,6.99192244083803,-6.62168751559031,-9.02145938028063,24.5238157546634,-34.1141631840418,-28.5710922806121,1.02704236067113
2.94305396356483,7.47103256473509,-25.419835382146,3.73788947724922,7.12321380888481,-6.64964566344131,-9.00237058977957,24.0559838541944,-34.1694172322642,-28.1894201134482,0.897081879558228
2.77548722381349,7.56311186812114,-25.403699533314,3.74352874380524,7.24555075479246,-6.67980955610539,-8.98438951928472,23.616045935696,-34.2239055079462,-27.782862423249,0.735135906833451
2.61995230671321,7.64439649685219,-25.3878866267216,3.74941518226771,7.35946502298037,-6.71204533864423,-8.96764431200144,23.2036031095923,-34.2776421908273,-27.3538600299356,0.542276361244017
2.47618366274819,7.71527759179033,-25.3724188532942,3.75546649076055,7.46544788782493,-6.746174912605,-8.95230704909486,22.8182702656901,-34.3305276647481,-26.9051850143916,0.319937920186604
2.34360656928104,7.77619519882142,-25.3573333244686,3.76158268878606,7.5639437381515,-6.78197480785978,-8.93859040108084,22.4596756195287,-34.3823534612756,-26.4399058474072,0.0699034069062546
2.22135129000517,7.82763400531207,-25.3426806305117,3.76764906961693,7.6553448534836,-6.81917607912663,-8.92674406791779,22.1274573178447,-34.4328101704895,-25.9613456244911,-0.205717840343981
2.10829071940037,7.87011861759553,-25.3285234877329,3.77353936445261,7.73998753485639,-6.85746530596164,-8.91705097769521,21.8212573346095,-34.4814980230774,-25.4730342491711,-0.504518267205144
2.00309956257897,7.90420842162858,-25.3149354680208,3.77911902462765,7.81814974649753,-6.89648677514861,-8.90982320232276,21.5407129909222,-34.5279397864084,-24.9786557373054,-0.823826363835814
1.9043295729445,7.93049207387694,-25.3019997892222,3.78424853115454,7.89005040124292,-6.93584590908198,-8.90539753742039,21.2854465278087,-34.5715955716515,-24.4819921303795,-1.16074582785207
1.81049281365713,7.94958167719054,-25.2898081339835,3.78878664770439,7.95585038151778,-6.97511396904428,-8.90413068280577,21.055053248915,-34.6118791129927,-23.9868657924573,-1.51219825365444
1.72014403138354,7.96210670546458,-25.2784594589985,3.79259354457965,8.0156553335995,-7.01383401179918,-8.90639395262985,20.8490888243971,-34.6481750517376,-23.4970820906025,-1.87496772900467
1.6319541513374,7.96870774976363,-25.2680587558616,3.79553373817997,8.06952021186255,-7.05152801984837,-8.91256744369505,20.6670563993621,-34.6798567438603,-23.0163745677531,-2.24574559670774
