Finger Velocity,Scap_X,Scap_Y,Scap_Z,Shoulder horiz abd-adduction,Shoulder flexion-extension,Shoulder internal-external rotation,elbow flexion-extension,forearm pronation-supination,wrist flexion-extension,wrist radial-ulnar deviation
1.1151129855861,-16.2967542132633,-27.4152419309688,7.50035700245216,-17.1242688564183,-20.0007128137164,-18.5197181669249,56.672066368953,-26.0227420637711,-23.9746230780661,0.107176499509162
1.11542443149041,-16.3169896741386,-27.4772289018997,7.45744159444369,-17.0666017629631,-19.8842683003331,-18.4747129791148,56.7389133213125,-25.763915352747,-23.030563018972,-0.738515642799674
1.25604847110525,-16.3417001674638,-27.5362911210609,7.40775003900538,-17.0017437769898,-19.754752226051,-18.4194985566497,56.8275375878774,-25.4852894276311,-21.9815601618313,-1.68212310454406
1.55234626318253,-16.371133885517,-27.591189206963,7.35100037195905,-16.9300352744472,-19.6113393364069,-18.3534763632699,56.9404951821839,-25.1877875049011,-20.8343382314618,-2.71700531614808
1.983754380348,-16.4054935918821,-27.6406599734878,7.28695246288488,-16.8519683610036,-19.4531982749931,-18.2761069708731,57.0803299816072,-24.8725114673376,-19.5984628129139,-3.83385783580901
2.52501529309668,-16.4449306524461,-27.6834358625466,7.21540862922228,-16.7681853998174,-19.2794988415844,-18.1869132447272,57.2495454735398,-24.5407126288868,-18.2861628751385,-5.0209003279363
3.15844050540938,-16.4895400557155,-27.7182644424001,7.13621328094824,-16.679473538745,-19.0894204610865,-18.0854817979554,57.4505769398704,-24.1937598152861,-16.9119781112033,-6.26422940661041
3.87274337873479,-16.5393566253375,-27.7439274433268,7.04925172528248,-16.5867551794645,-18.8821617040014,-17.9714628300368,57.6857643302282,-23.8331060893585,-15.4922426754001,-7.54832445728439
4.66015340635607,-16.5943525778721,-27.7592588370792,6.95444831327534,-16.4910744797535,-18.6569506281945,-17.8445685577148,57.9573259861518,-23.4602553757964,-14.0444376098529,-8.85667320465435
5.51453056593071,-16.6544365221213,-27.7631615187718,6.8517641356712,-16.3935801332831,-18.4130556586518,-17.7045705097994,58.2673333149234,-23.0767300918999,-12.586463627994,-10.1724650276834
6.43034240520306,-16.7194539361954,-27.7546222129547,6.74119446814571,-16.2955048188747,-18.1497966953882,-17.5512959837508,58.6176864797538,-22.6840407134905,-11.1358983384005,-11.4792883573676
7.40213220967979,-16.7891890974542,-27.7327242951854,6.62276612931079,-16.1981418436195,-17.8665561423703,-17.384623956281,59.0100911736508,-22.283658043002,-9.70930420852753,-12.7617670543417
8.42424899386405,-16.8633683807698,-27.6966582935762,6.49653485855022,-16.1028196157762,-17.5627895779503,-17.2044807127353,59.4460365746734,-21.8769888255656,-8.32164496286513,-14.0060800384926
9.49071960671053,-16.9416647841095,-27.6457299101574,6.36258275623877,-16.0108746717303,-17.2380358307983,-17.0108354205867,59.9267746344381,-21.4653552834787,-6.98585087287089,-15.2003264241073
10.5952016274322,-17.0237034890885,-27.579365479006,6.22101576708114,-15.9236240442258,-16.8919262735044,-16.8036958286662,60.4533009211267,-21.0499791000812,-5.71255169456105,-16.3347207802808
11.7309847906093,-17.1090682206602,-27.4971148554389,6.07196113840635,-15.8423377932266,-16.524193187593,-16.5831042319831,61.0263373117172,-20.631970362722,-4.50997458018561,-17.4016250862538
12.8910231465841,-17.1973081382048,-27.3986518039335,5.91556475826307,-15.7682125244235,-16.1346770796739,-16.3491338076691,61.6463168935619,-20.2123219457275,-3.38398702744962,-18.3954415331685
14.0679875202333,-17.2879449740625,-27.2837720155282,5.75198827849318,-15.7023466942992,-15.7233328360214,-16.1018854059322,62.3133714811062,-19.7919097461486,-2.33825400547722,-19.3124013175981
15.2543316793471,-17.3804801382723,-27.1523889328907,5.58140595490616,-15.6457184456703,-15.2902345975311,-15.8414848743333,63.0273221695076,-19.3714990475609,-1.37447412678428,-20.1502886368629
16.4423676992322,-17.4744015303797,-27.0045275913753,5.40400118303912,-15.5991666345594,-14.8355792303417,-15.5680810011791,63.7876733260714,-18.9517570652914,-0.492661031444784,-20.9081373335546
17.6243471684087,-17.569189838179,-26.8403166996451,5.21996276247603,-15.5633756001921,-14.3596882720714,-15.2818441722069,64.5936103597363,-18.5332714273229,0.308558777898476,-21.5859319038522
18.7925455551821,-17.6643241556266,-26.6599791877393,5.02948097398837,-15.5388640975076,-13.8630082595905,-14.9829658290697,65.4440015100421,-18.1165739955576,1.03165343790448,-22.1843368493605
19.939347472859,-17.7592868138068,-26.4638214470419,4.83274359431033,-15.5259786595868,-13.3461093960677,-14.6716587906782,66.3374037670559,-17.7021690683376,1.67991305867799,-22.7044702477667
21.0573308639011,-17.8535673827053,-26.2522214793994,4.6299320010511,-15.5248914948621,-12.8096825884996,-14.348158451256,67.272072885938,-17.2905646622995,2.25720490616115,-23.1477300321479
22.1393483369482,-17.9466658578203,-26.0256161690569,4.4212175363938,-15.5356028645356,-12.2545349694793,-14.0127248088305,68.2459773131962,-16.8823052800663,2.7677594237432,-23.5156753564362
23.1786040724592,-18.0380950862163,-25.7844879002656,4.20675830381165,-15.557947739327,-11.6815840936279,-13.6656452118351,69.2568157148667,-16.478004357788,3.21598671129954,-23.8099607391044
24.1687248833699,-18.1273825095893,-25.5293507699451,3.9866965660429,-15.5916064035924,-11.0918510574956,-13.3072376456098,70.3020377006407,-16.0783744807156,3.60632123939791,-24.0323173208402
25.1038241879827,-18.2140713115329,-25.2607366841088,3.76115689348774,-15.6361185582048,-10.4864528241769,-12.9378543204902,71.3788672734592,-15.6842534820419,3.9430919835489,-24.1845733176887
25.9785578291169,-18.2977210600032,-24.9791816670473,3.5302451796386,-15.6909003722782,-9.86659403953531,-12.5578852747515,72.4843284974392,-15.2966247155169,4.23041548077052,-24.2687043420109
26.7881708589257,-18.3779079406691,-24.68521274181,3.29404859606636,-15.755263849257,-9.23355861152007,-12.1677616765582,73.6152728643623,-14.9166301060175,4.47211019552508,-24.2869034849294
27.5285346032654,-18.454224685037,-24.3793357528325,3.05263650959797,-15.8284378055016,-8.58870129640417,-11.7679585090804,74.7684078482504,-14.5455749990547,4.67163169526307,-24.2416607694059
28.1961735223352,-18.5262803071108,-24.0620244935997,2.80606233732955,-15.9095897118437,-7.9334395043273,-11.3589963595652,75.9403261677943,-14.1849243063125,4.83202915580225,-24.1358417418145
28.7882815939026,-18.5936997701709,-23.7337114716761,2.55436627839441,-15.9978476285531,-7.26924550555043,-10.9414421050078,77.127535327164,-13.8362899386952,4.9559243770132,-23.9727555893226
29.3027281596014,-18.6561237080387,-23.3947805913954,2.29757883740071,-16.0923214808888,-6.59763918423425,-10.5159083833151,78.3264870743258,-13.5014099900826,5.04551461613854,-23.756204296586
29.7380533908699,-18.7132083217789,-23.0455619680124,2.03572504067747,-16.1921229780495,-5.92018143913334,-10.0830518446347,79.5336064933226,-13.1821205433954,5.10260006074146,-23.4905060140759
30.0934537460251,-18.7646255641975,-22.6863290134777,1.76882923847181,-16.2963835654377,-5.23846826642294,-9.64357027885294,80.7453205176443,-12.8803212863227,5.12863566639933,-23.180487973681
30.3687580002748,-18.8100637139174,-22.3172978553511,1.49692038098016,-16.4042699059452,-4.55412548517201,-9.19819880124711,81.958085700263,-12.5979363369775,5.12480547162589,-22.8314468562764
30.5643946322927,-18.8492284322723,-21.938629067498,1.2200376523363,-16.514996498744,-3.86880399084509,-8.74770534041039,83.1684150947554,-12.3368717927947,5.09211559095094,-22.4490773100388
30.6813515400364,-18.8818443901571,-21.5504316096039,0.938236344109371,-16.6278351604961,-3.18417535324057,-8.2928857042972,84.3729040965753,-12.0989715345521,5.03150018911221,-22.0393720778716
30.7211292300897,-18.9076575414707,-21.1527687987678,0.651593849277511,-16.7421212216723,-2.50192751729785,-7.83455849976374,85.5682550769048,-11.8859727480042,4.94393318651574,-21.6084996158334
30.6856887739047,-18.9264380948352,-20.7456660709527,0.360215658749623,-16.8572564393322,-1.82376032682585,-7.37356015202235,86.7513006233516,-11.6994624826811,4.83053751551067,-21.1626668931871
30.5773959455795,-18.937984192319,-20.3291202333731,0.0642412409894252,-16.9727087941957,-1.15138057929595,-6.91074021682723,87.9190251856335,-11.5408363768518,4.69268361650202,-20.7079760680917
30.3989630438133,-18.9421262489492,-19.9031098740598,-0.236150323641202,-17.0880095058243,-0.486496327980842,-6.4469571023381,89.0685849121437,-11.4112604736667,4.53206958011403,-20.2502838675722
30.1533899501648,-18.9387318491077,-19.4676065972341,-0.540735098859586,-17.2027477436103,0.169189836145228,-5.98307422707208,90.1973254565566,-11.311636870375,4.35077680705047,-19.7950718292813
29.8439059819264,-18.9277110427739,-19.0225867866422,-0.849239606790561,-17.316563618739,0.813988763422328,-5.51995654993227,91.3027975320689,-11.2425738049529,4.15129704778673,-19.3473342468157
29.4739140569754,-18.9090218422,-18.568043638896,-1.16133689846892,-17.429140105361,1.4462341729782,-5.05846733227986,92.3827699933897,-11.2043607007598,3.93652891256309,-18.9114889230622
29.0469385974078,-18.8826756936276,-18.1039992368565,-1.47664361304243,-17.5401945529502,2.06429363082805,-4.59946493910603,93.4352402339412,-11.196948650995,3.70974412735057,-18.4913139213322
28.5665784580682,-18.8487426911551,-17.6305164454959,-1.79471828773836,-17.6494704172935,2.66658107411228,-4.14379946342531,94.4584416989945,-11.2199368088552,3.47452574016334,-18.0899116301008
28.0364659770347,-18.8073563070325,-17.1477104092385,-2.11506118816185,-17.7567297637246,3.25157076482659,-3.69230897373576,95.4508483331093,-11.2725651316707,3.23468203376384,-17.7096997846196
27.4602330122165,-18.7587174271584,-16.6557594082121,-2.43711589914429,-17.861746994524,3.81781244901511,-3.24581524409649,96.4111758008487,-11.3537138882036,2.99414102917369,-17.352427716034
26.8414845588124,-18.7030974974175,-16.1549147929728,-2.76027284688733,-17.96430413097,4.36394740051947,-2.80511892320681,97.3383793475723,-11.4619102627597,2.7568311722266,-17.0192150656514
26.1837802466157,-18.6408406057777,-15.6455096749309,-3.08387482327841,-18.0641878453641,4.88872494879093,-2.37099421510518,98.231648210847,-11.5953422678787,2.52655412313379,-16.710609490659
25.4906237065825,-18.5723643484728,-15.1279660221056,-3.40722446900938,-18.1611882996197,5.39101903636564,-1.94418325972107,99.0903965610413,-11.7518800083571,2.30685558302007,-16.4266594375358
24.7654594870199,-18.4981593563382,-14.6027998131101,-3.72959355960465,-18.255099720121,5.86984432596548,-1.52539049751073,99.9142510503631,-11.9291041315928,2.10089986737367,-16.1669978027153
24.0116769063399,-18.418787389253,-14.0706239405722,-4.05023384034158,-18.3457225360485,6.32437137182091,-1.1152773611275,100.703035190114,-12.1243410670322,1.91135354627761,-15.9309321930431
23.2326199664142,-18.3348779423455,-13.5321486222803,-4.3683890781912,-18.4328668333542,6.75394037396502,-0.714457647770066,101.456750952262,-12.3347044187433,1.74028297296676,-15.7175375267119
22.431602231502,-18.2471233439255,-12.9881791654186,-4.68330794067193,-18.5163568276334,7.15807304512598,-0.323493888573128,102.175558180721,-12.5571416454516,1.58906994778475,-15.5257468779971
21.6119254132033,-18.1562723567825,-12.4396110277449,-4.99425727159884,-18.5960360370021,7.53648214162821,0.0571050456482157,102.859752566264,-12.7884849503435,1.45834911262255,-15.3544367699863
20.7769002989161,-18.0631223205635,-11.8874222202415,-5.30053531386035,-18.6717728402203,7.88907824697571,0.426884966021361,103.509743057224,-13.0255051131849,1.34796991675529,-15.2025035682857
19.9298686223985,-17.9685098994337,-11.3326631917074,-5.60148443203709,-18.7434661275688,8.2159734537225,0.785445991015306,104.126029627052,-13.2649668371207,1.25698511706187,-15.068928237991
19.0742244978682,-17.8733005336201,-10.7764444264641,-5.89650291352976,-18.811050779406,8.51748167103047,1.13244086320462,104.709182288846,-13.5036840643522,1.18366677674185,-14.9528274974711
18.2134341160563,-17.7783767374135,-10.2199220747876,-6.18505547367386,-18.8745027318215,8.79411539477085,1.4675721501024,105.259822135645,-13.7385736551575,1.12554963743544,-14.8534903067121
17.3510525190125,-17.6846254330354,-9.66428202023597,-6.46668215066948,-18.9338434125649,9.04657890933909,1.79058861284053,105.778605008363,-13.9667058419163,1.07950061125953,-14.7703995936188
16.4907364123329,-17.5929245482165,-9.11072285999483,-6.74100533813332,-18.9891433622403,9.27575803251968,2.10128108877562,106.266208178076,-14.185349980451,1.04181203489957,-14.7032400461161
15.6362521157741,-17.5041291278507,-8.56043832471421,-7.00773475874238,-19.0405249017451,9.48270665088184,2.39947825898305,106.723320206087,-14.3920143296406,1.00831531391078,-14.6518935796754
14.7914778675861,-17.4190572198316,-8.01459968926362,-7.26667023598917,-19.0881637627635,9.66863040952432,2.68504266539749,107.150633939014,-14.5844788802194,0.974510724663865,-14.6164246552117
13.9603997506362,-17.3384758050825,-7.47433872240758,-7.51770218552272,-19.1322896488777,9.83486800448717,2.95786731749489,107.548842423595,-14.7608205928282,0.935708496245421,-14.5970579260377
13.1471004609293,-17.263087064569,-6.94073168528717,-7.76080983089612,-19.1731857250822,9.98287056955514,3.21787319046711,107.918637394125,-14.9194307646237,0.887175928749396,-14.5941507092462
12.3557399502505,-17.1935153130456,-6.41478481228524,-7.99605724159755,-19.2111870392256,10.1141796520639,3.46500786137809,108.260709893974,-15.0590246079148,0.82428526022018,-14.6081625105013
11.5905266071815,-17.1302949684928,-5.89742159990184,-8.22358737163192,-19.2466778687569,10.2304042470906,3.69924544927634,108.575752538137,-15.1786434868684,0.742657258673717,-14.6396233347019
10.8556770766311,-17.0738599535541,-5.38947210534528,-8.44361433108771,-19.280087970777,10.3331973209224,3.92058792293241,108.864462902858,-15.2776506103298,0.638296020747632,-14.6891018835899
10.1553620884873,-17.0245349354901,-4.8916643363782,-8.65641416276337,-19.3118876980013,10.4242322123146,4.12906773778202,109.127547537888,-15.3557212995573,0.507711128559365,-14.7571740756066
9.49363490323619,-16.9825288036083,-4.40461771613712,-8.86231444373773,-19.3425819328588,10.5051792600281,4.32475168697992,109.365726128796,-15.4128291967582,0.348024098709266,-14.84439170104
8.87433849468815,-16.9479307506046,-3.92883854241286,-9.06168309166157,-19.3727027982029,10.577682974287,4.50774580258917,109.579735374939,-15.4492298835328,0.157056911681397,-14.9512505066068
8.30098794294244,-16.9207092559193,-3.46471732999509,-9.25491680558696,-19.40280113702,10.6433400535659,4.67820109927338,109.770332175958,-15.4654432631164,-0.0665987097513752,-15.0781566467154
7.77662655519074,-16.900714164786,-3.01252791659381,-9.44242958499054,-19.4334368123089,10.7036785464519,4.8363198911999,109.938295734285,-15.4622357048324,-0.323531748403232,-15.2253903018882
7.30365895446514,-16.8876819289457,-2.57242821301996,-9.62464174023074,-19.4651679465743,10.7601384636264,4.98236233012702,110.084428205471,-15.4406024259116,-0.613481768142671,-15.3930653968451
6.88367240622009,-16.8812439380449,-2.14446247837564,-9.80196974741946,-19.4985392857544,10.8140541466412,5.1166527264221,110.20955359915,-15.4017500445158,-0.935327308602593,-15.5810847878936
6.51726835629443,-16.8809377323935,-1.72856500432338,-9.97481723307293,-19.5340699349248,10.8666386937826,5.2395851488136,110.314514778795,-15.3470788384649,-1.2870915405863,-15.7890910423631
6.20393663842082,-16.8862207542149,-1.32456510548174,-10.1435673120276,-19.572240776812,10.9189707314328,5.35162776891479,110.400168621679,-15.2781640778822,-1.66596387982588,-16.0164139513302
5.94200977754867,-16.8964861753267,-0.932193332974759,-10.3085764456979,-19.6134819446249,10.9719838016771,5.45332542932981,110.467379636422,-15.1967358566003,-2.06833647200951,-16.2620170696617
5.7287284484094,-16.9110802429632,-0.551088844979048,-10.4701699296106,-19.6581607671582,11.0264586074085,5.54529997038644,110.517012538372,-15.1046570582266,-2.48985482322157,-16.5244466836443
5.56042904725038,-16.9293205143307,-0.180807873643597,-10.6286390510022,-19.7065706308068,11.0830183105751,5.6282479452393,110.549924417924,-15.0038993880506,-2.9254822355546,-16.8017874857291
5.43283506705944,-16.9505143031466,0.179166779888751,-10.7842398761339,-19.7589212131615,11.1421270196928,5.7029354776601,110.566957194479,-14.8965177219849,-3.36957801246522,-17.0916297386465
5.34140646416894,-16.9739766400123,0.5294153075852,-10.9371935401896,-19.8153305406019,11.2040915354671,5.77019016645515,110.568931032078,-14.7846233132195,-3.81598953503856,-17.3910527350498
5.28168693169349,-16.9990470598509,0.870569618072494,-11.0876878342491,-19.875819305746,11.2690663539106,5.83089011335256,110.556639310243,-14.6703566094207,-4.25815821272428,-17.6966288584801
5.24959297276882,-17.0251045799625,1.2033013429901,-11.2358798247769,-19.9403078424666,11.3370618554245,5.88595033832847,110.530845611434,-14.5558605363339,-4.68923893877721,-18.0044515320544
5.2416070929176,-17.0515803216107,1.52830926629351,-11.3818992034589,-20.0086160896937,11.4079555304236,5.93630702666463,110.492283027296,-14.4432550860178,-5.10223201528938,-18.3101888507228
5.25486134237509,-17.0779673513317,1.8463063448163,-11.5258520452553,-20.080466776389,11.4815060011499,5.98290020131941,110.441655919188,-14.3346139237819,-5.49012557811305,-18.6091628385833
5.28711851576078,-17.1038274718283,2.15800652704859,-11.6678246483678,-20.1554919264454,11.5573694980923,6.02665551879056,110.379644105565,-14.2319435346327,-5.84604543600995,-18.8964522416086
5.33667231256724,-17.1287948762048,2.46411161649006,-11.807887145134,-20.2332426146488,11.6351183521697,6.06846594768731,110.306909295455,-14.1371652175031,-6.16340810162127,-19.1670148028301
5.4021943846272,-17.1525767855983,2.76529845270817,-11.9460966124818,-20.3132017138543,11.7142609864004,6.10917411325569,110.224103449687,-14.0521000508771,-6.43607183286082,-19.415823314968
5.48255714628436,-17.1749513932951,3.06220669034388,-12.0824994763777,-20.3947991839991,11.7942628382679,6.14955608078968,110.131878638253,-13.978456825553,-6.65847989309023,-19.6380085925864
5.57665842283014,-17.1957636044802,3.35542744461853,-12.2171330970983,-20.4774292975952,11.8745676112177,6.19030730805481,110.030897881447,-13.9178228703077,-6.82579007446049,-19.8290019610894
5.68326887025757,-17.2149191682809,3.64549304529907,-12.3500265385049,-20.5604690976033,11.9546182365029,6.23203142604925,109.921846418331,-13.8716576607562,-6.9339848471292,-19.9846699609428
5.80091658251571,-17.2323778415141,3.93286810424157,-12.4812006469858,-20.6432973487641,12.0338769293074,6.27523240361514,109.805442837353,-13.841289069376,-6.97995730194901,-20.1014346877132
5.92781626672205,-17.2481461968498,4.2179420607064,-12.6106676527319,-20.7253132679088,12.1118437562854,6.3203104875855,109.682449524905,-13.8279120665447,-6.9615693063641,-20.1763744328866
6.06184372041739,-17.2622705886898,4.50102332872929,-12.7384305139413,-20.8059543926247,12.1880732035572,6.36756205981694,109.553681929267,-13.8325896204338,-6.87767988163751,-20.207300880546
6.20055095087795,-17.2748306365527,4.78233513217606,-12.8644821540936,-20.8847130518849,12.2621883408784,6.41718323887833,109.420016187638,-13.8562554837765,-6.72814356191199,-20.192810834184
6.3412137241154,-17.2859334224615,5.06201307324957,-12.9888046497501,-20.9611510090177,12.3338922999684,6.46927675602449,109.282394710836,-13.8997185172878,-6.51378022195125,-20.1323120972554
6.48090177239557,-17.295708465395,5.34010443938957,-13.1113683706015,-21.0349119361146,12.4029768991507,6.52386142321566,109.141829360751,-13.96366819686,-6.23631938721566,-20.0260245628158
6.61656204754624,-17.3043034436736,5.61656921487908,-13.232131066594,-21.1057314492971,12.4693283396647,6.58088339899062,108.999401899671,-14.0486809832953,-5.89832322316237,-19.8749586821297
