Finger Velocity,Scap_X,Scap_Y,Scap_Z,Shoulder horiz abd-adduction,Shoulder flexion-extension,Shoulder internal-external rotation,elbow flexion-extension,forearm pronation-supination,wrist flexion-extension,wrist radial-ulnar deviation
0.73966039168713,-16.6632698504527,-24.9389971440782,7.32170203941358,-17.3072451151606,-23.9161059614434,-16.4903050164802,58.9028053504355,-26.9512328482562,-27.8616562061158,0.269556314754439
0.862429180759603,-16.6535984109205,-24.9698285324998,7.33740109966275,-17.3071189299686,-23.9018826910529,-16.4992649866007,58.9284910094256,-26.8167398501902,-27.9766604988463,0.297723392221151
0.990245876558119,-16.6437534337368,-25.0025951343103,7.35279315667299,-17.307494572156,-23.8869882384065,-16.5079079664099,58.9578908689987,-26.6703990079026,-28.0813842435418,0.324605282337734
1.12227135851961,-16.6338556738479,-25.0372081351744,7.36764983775405,-17.3082410694018,-23.8715209214331,-16.5159679052416,58.9909176539306,-26.5123947939385,-28.1760644119106,0.350476210772324
1.25761460043996,-16.6240338999062,-25.0735615376043,7.38172950787299,-17.3091974105177,-23.8555858759388,-16.5231603900192,59.0274167993987,-26.3430284520509,-28.2613563547942,0.375744754959582
1.39534535597091,-16.614422504609,-25.1115337235373,7.39478060938874,-17.3101720726743,-23.8392925911195,-16.5291865047725,59.0671640527631,-26.1627157811714,-28.3383072810681,0.400942335999643
1.53450828525865,-16.6051587769456,-25.1509894464076,7.40654564340502,-17.3109430971027,-23.8227520400174,-16.533737333583,59.1098644155518,-25.9719829509793,-28.4083108808255,0.42670247710914
1.67413798510763,-16.5963798867239,-25.1917821518499,7.41676573686893,-17.3112587785269,-23.8060735012117,-16.5364990608511,59.1551525739302,-25.7714603617345,-28.4730457348028,0.453731712062961
1.81327447922507,-16.5882196430511,-25.2337565043421,7.42518570614968,-17.3108390262897,-23.7893611919762,-16.5371585938614,59.2025949398327,-25.5618745940794,-28.5344009201276,0.482773745982994
1.95097876751298,-16.580805097258,-25.2767509862539,7.43155949372333,-17.3093774461,-23.7727108462283,-16.5354096003377,59.251693389456,-25.3440385326808,-28.5943928345187,0.514569087221515
2.08634805741569,-16.5742530676855,-25.3206004364867,7.43565582080507,-17.3065441763451,-23.7562063714601,-16.5309588203635,59.3018907384027,-25.1188397883584,-28.6550777753658,0.549812864764811
2.21853032036183,-16.5686666688468,-25.3651384080631,7.43726386761096,-17.3019894873283,-23.7399167083173,-16.5235324810044,59.3525779317119,-24.8872275869559,-28.7184651480795,0.589113878223003
2.34673783879174,-16.5641319306307,-25.410199245867,7.43619876808124,-17.2953481142963,-23.7238929972426,-16.5128826176098,59.4031028531077,-24.6501983415955,-28.7864361466458,0.632957970864773
2.47025943694436,-16.5607145943273,-25.4556198125773,7.43230669126822,-17.2862442490908,-23.7081661339489,-16.4987930920092,59.4527805745718,-24.4087801797903,-28.8606721219207,0.681678376113575
2.58847112245564,-16.5584571709157,-25.5012408170539,7.42546927959315,-17.2742970657809,-23.6927447766307,-16.4810850958493,59.5009047801593,-24.1640167577117,-28.9425955824547,0.73543471777459
2.70084490581122,-16.5573763425236,-25.5469077219079,7.41560722518452,-17.2591266072921,-23.6776138575762,-16.4596219357627,59.5467600141101,-23.9169507543698,-29.0333252336009,0.794201154122289
2.80695561003856,-16.5574607800663,-25.5924712262414,7.40268278934507,-17.2403598184878,-23.6627336489538,-16.4343129153017,59.5896343327687,-23.6686074838848,-29.1336452690005,0.857763226806368
2.90648553249089,-16.5586694394521,-25.6377873377273,7.38670110744131,-17.2176364833796,-23.6480394310944,-16.4051161583558,59.6288318936907,-23.4199790773377,-29.2439885912966,0.925722532857517
2.99922687259983,-16.5609303867061,-25.6827170667693,7.36771017204423,-17.1906148151512,-23.6334418055864,-16.3720402609337,59.6636850020335,-23.1720096580749,-29.3644335383394,0.99750823323596
3.08508189226615,-16.5641401902638,-25.7271257944087,7.34579944783255,-17.158976458273,-23.618827681726,-16.3351447087716,59.6935651566957,-22.925581869937,-29.4947136022254,1.07239436800514
3.16406082721898,-16.5681639075531,-25.7708823839582,7.32109713707909,-17.122430690105,-23.6040619426816,-16.2945390498933,59.717892693253,-22.6815050298895,-29.6342392923103,1.14952181405664
3.2362776163305,-16.5728356833118,-25.8138581224077,7.29376617929191,-17.0807176519476,-23.5889897685304,-16.2503808585436,59.7361446993387,-22.4405050801096,-29.7821307378568,1.22792353816388
3.30194355983004,-16.5779599686795,-25.8559255890443,7.26399912933108,-17.0336104939964,-23.5734395600754,-16.2028725690022,59.7478609709262,-22.2032164210379,-29.9372590720858,1.30655169966846
3.36135905527701,-16.5833133617156,-25.8969575529295,7.23201211232224,-16.9809163835623,-23.5572263737439,-16.1522572958056,59.7526478764355,-21.9701756236921,-30.0982942969678,1.38430521684095
3.41490359121396,-16.5886470597226,-25.936825997063,7.19803809702834,-16.9224763984355,-23.540155747402,-16.0988137899403,59.7501800929631,-21.7418169552579,-30.2637572283976,1.46005659103821
3.46302420251071,-16.5936899001521,-25.9754013567083,7.16231975743716,-16.8581644005674,-23.5220277725765,-16.0428507057229,59.7402002686889,-21.5184696181384,-30.4320731126238,1.53267698452341
3.50622260921552,-16.5981519501808,-26.012552044655,7.12510220343488,-16.7878850500883,-23.5026412525346,-15.9847003691557,59.7225167410171,-21.300356605699,-30.6016244016703,1.60105870116584
3.54504127376436,-16.6017285872901,-26.0481443185255,7.08662585783404,-16.7115711685078,-23.4817977790048,-15.9247122467868,59.6969994974538,-21.0875951103686,-30.7707999302036,1.66413434844379
3.58004862189119,-16.6041049967127,-26.0820425254829,7.04711974129656,-16.6291806890747,-23.4593055633595,-15.8632463147568,59.6635746078072,-20.8801984622295,-30.9380374972367,1.72089214262906
3.61182368318742,-16.6049609977385,-26.1141097383526,7.0067953994924,-16.5406934410018,-23.4349828715192,-15.8006665192461,59.622217388017,-20.678079609181,-31.1018568983943,1.77038709758433
3.64094042059497,-16.6039761001282,-26.1442087737337,6.96584166919356,-16.4461080032196,-23.4086609371561,-15.7373345020599,59.5729445818625,-20.4810561618329,-31.2608810114549,1.81174819292126
3.66795203615817,-16.6008346846191,-26.1722035561135,6.92442043418735,-16.3454388335722,-23.3801862659926,-15.6736037407779,59.5158058661894,-20.2888570145764,-31.413843626099,1.84418199810241
3.69337556375997,-16.5952311975621,-26.1979607632886,6.88266346969454,-16.2387138330885,-23.3494222927545,-15.6098142230453,59.4508749946318,-20.1011305205113,-31.5595841523581,1.86697357479347
3.71767708708614,-16.5868752483111,-26.2213516618477,6.84067041763466,-16.1259724470034,-23.3162504039627,-15.5462877399291,59.3782408905435,-19.9174541461039,-31.6970309167264,1.87948573574176
3.74125794924476,-16.5754964985428,-26.2422540228105,6.79850787919909,-16.0072643421984,-23.2805703834826,-15.4833238459853,59.2979989800514,-19.7373454682167,-31.8251761762411,1.88115784417966
3.76444234377927,-16.5608492357775,-26.26055400058,6.75620956143592,-15.882648642852,-23.2423003649062,-15.4211964970664,59.2102430218999,-19.5602743110187,-31.9430469025041,1.87150523376638
3.78746668829837,-16.5427165300408,-26.2761478637851,6.71377737532226,-15.7521936592358,-23.2013763819836,-15.3601513442118,59.1150576471839,-19.3856757633016,-32.0496755927914,1.85012001276462
3.81047117442027,-16.5209138831017,-26.2889434820915,6.67118335666566,-15.6159770148525,-23.1577515972477,-15.3004036365315,59.0125117769325,-19.2129637740177,-32.1440748816852,1.81667356259606
3.83349385527722,-16.4952922929886,-26.2988614944336,6.62837226849693,-15.4740860695369,-23.1113952656785,-15.2421366702077,58.9026530462266,-19.0415449954018,-32.2252187495583,1.77092056040202
3.85646757129327,-16.4657406709173,-26.3058361065858,6.58526474237899,-15.3266185512842,-23.062291463718,-15.1855007149517,58.7855033339967,-18.8708325250152,-32.2920319304346,1.71270394937826
3.87921992700525,-16.4321875622402,-26.3098154864682,6.54176082318786,-15.1736833402758,-23.0104375938018,-15.1306123527734,58.661055476713,-18.7002591868766,-32.3433880000444,1.64196002334509
3.90147642117063,-16.394602137332,-26.3107617439985,6.49774379498485,-15.0154013818591,-22.9558426673867,-15.0775541769631,58.5292712264212,-18.5292899862323,-32.3781157942208,1.55872272358612
3.92286670770508,-16.3529944329414,-26.3086505013359,6.45308418243248,-14.8519067281168,-22.8985253761746,-15.0263748219696,58.390080491809,-18.3574333744932,-32.3950133524084,1.46312636427575
3.94293383675828,-16.3074148398207,-26.3034700820652,6.4076438392193,-14.6833477143343,-22.8385119772967,-14.9770893235515,58.243381870975,-18.1842509761823,-32.3928684299448,1.35540625458208
3.96114620454268,-16.2579528479044,-26.2952203746693,6.36128004720259,-14.5098882712044,-22.7758340370955,-14.9296798328894,58.0890444488414,-18.0093654645433,-32.3704846196286,1.23589699086795
3.97691183708876,-16.2047350750573,-26.2839114528474,6.3138495538369,-14.3317093629624,-22.7105260961215,-14.8840967165191,57.9269107976129,-17.8324663286872,-32.326712145878,1.10502849177036
3.98959455390097,-16.1479226195427,-26.2695620571073,6.26521247137503,-14.1490105265902,-22.6426233354661,-14.8402600615622,57.7568010900082,-17.6533133510539,-32.2604824008276,0.963320116640551
3.99853150611132,-16.0877077909381,-26.2521980544275,6.21523595425133,-13.9620114641714,-22.5721593423126,-14.7980615792984,57.5785182117984,-17.4717377066569,-32.1708452860488,0.811373428037041
4.00305156039691,-16.0243102898018,-26.2318509943921,6.16379756866299,-13.770953610307,-22.4991640881266,-14.7573668732549,57.3918537399179,-17.2876406984159,-32.0570084189834,0.649864311239219
4.00249400212646,-15.9579729220225,-26.2085568718137,6.11078827720418,-13.5761015668381,-22.4236622415252,-14.7180180233664,57.1965946337709,-17.1009902441141,-31.9183772417851,0.479535232886126
3.99622705461368,-15.8889569478207,-26.182355189469,6.05611498222282,-13.3777442762663,-22.345671935933,-14.6798364389099,56.9925304708302,-16.9118153206572,-31.7545949911749,0.301188404310505
3.98366575084433,-15.81753717648,-26.1532883934915,5.99970259841413,-13.1761957966347,-22.2652040988344,-14.6426259429513,56.7794610439087,-16.7201986503835,-31.5655813520756,0.115680512460943
3.96428874447827,-15.743996925244,-26.1214017321937,5.94149565076679,-12.9717955439885,-22.1822624258277,-14.6061760606136,56.5572041274485,-16.5262679872085,-31.3515684586921,-0.0760805125511833
3.9376537037334,-15.6686229640175,-26.0867435689714,5.88145941486743,-12.7649078837943,-22.0968440504799,-14.570265488073,56.3256032167428,-16.3301864246183,-31.1131327180047,-0.273136492798252
3.90341099119315,-15.5917005666385,-26.0493661596677,5.81958063250978,-12.5559209804582,-22.0089409232104,-14.5346657184958,56.0845350515374,-16.1321421877633,-30.8512207220945,-0.474477839660075
3.86131539177558,-15.5135087848226,-26.0093268796259,5.75586784652582,-12.3452448536987,-21.9185418738486,-14.4991447955498,55.8339167563179,-15.9323383724366,-30.5671674019136,-0.679040533943501
3.81123570794831,-15.4343160525751,-25.9666898536112,5.69035140408812,-12.1333086394678,-21.8256352966691,-14.4634711548086,55.5737124616262,-15.7309830538641,-30.2627046629294,-0.885701719765029
3.7531620942244,-15.3543762171038,-25.9215279076026,5.62308317750645,-11.9205571070826,-21.7302123628003,-14.4274174998554,55.3039393070272,-15.5282801224358,-29.9399589925453,-1.09327456140152
3.68721105084099,-15.2739250777854,-25.8739247340588,5.55413604789041,-11.7074465362331,-21.6322706306405,-14.390764648376,55.0246727567939,-15.3244211290923,-29.60143683649,-1.30050322526506
3.61362803828436,-15.193177498699,-25.8239771470811,5.48360319326579,-11.4944400976989,-21.5318178936721,-14.353305281228,54.7360511747319,-15.1195783521605,-29.2499968780089,-1.50605905442545
3.53278770898834,-15.1123251435909,-25.7717972985905,5.41159722019199,-11.2820029004112,-21.4288760874551,-14.3148475375596,54.4382796011583,-14.9138992360155,-28.888808768948,-1.70853914086917
3.44519177903767,-15.031534865617,-25.7175147249138,5.33824917468913,-11.0705968620943,-21.323485082419,-14.2752184165829,54.131632658068,-14.7075022996461,-28.5212984293998,-1.90646852763874
3.3514645799021,-14.9509477688131,-25.6612780922379,5.26370746156175,-10.8606755385061,-21.2157062135928,-14.2342669616962,53.8164564902781,-14.5004745651615,-28.1510808005079,-2.09830715571329
3.25234633692174,-14.8706789449177,-25.6032565127,5.18813669072233,-10.6526790194002,-21.1056254298393,-14.1918672083667,53.4931696427495,-14.2928705078539,-27.7818818585895,-2.28246238147095
3.14868421641743,-14.7908178777062,-25.5436403165976,5.11171645734363,-10.4470289753443,-20.9933559705734,-14.1479208753788,53.1622627815092,-14.0847124783324,-27.4174526316533,-2.45730742333767
3.04142116639631,-14.711429495706,-25.4826411931224,5.03464005254229,-10.2441239207555,-20.8790404914937,-14.1023597773479,52.8242971851685,-13.8759924948795,-27.0614787449733,-2.62120548993685
2.93158254756574,-14.6325558405972,-25.420491648383,4.95711309431939,-10.04433474696,-20.76285256521,-14.0551479384759,52.4799019624708,-13.6666752586998,-26.7174895656666,-2.77253869202559
2.82026051481697,-14.5542183009934,-25.3574437671047,4.87935206431194,-9.84800057604668,-20.6449974867157,-14.006283388513,52.1297699858528,-13.456702218277,-26.3887712653798,-2.90974026823576
2.7085960716058,-14.4764203404234,-25.2937672962178,4.8015827331111,-9.65542498878833,-20.5257123258743,-13.9557996138431,51.7746525684423,-13.2459965065655,-26.0782880449395,-3.03132825123283
2.59775869415011,-14.399150627742,-25.2297470920125,4.72403845498164,-9.46687268355759,-20.4052651909125,-13.9037666175353,51.4153529497663,-13.0344685886484,-25.7886153754303,-3.13593849878293
2.48892343120938,-14.3223864618452,-25.1656799890192,4.64695831382184,-9.28256662812023,-20.2839536929531,-13.8502915188038,51.0527186932646,-12.8220224760748,-25.5218884536774,-3.2223550093827
2.38324546076635,-14.2460973724415,-25.1018711615577,4.57058510910627,-9.10268577637898,-20.1621026247334,-13.7955186040606,50.6876331359927,-12.6085623794186,-25.2797681975468,-3.28953562453494
2.28183226823722,-14.1702487745833,-25.0386300618532,4.49516318364145,-8.92736343862113,-20.0400608811941,-13.7396287329254,50.3210060643783,-12.3939996763265,-25.0634260657508,-3.3366315741946
2.18571394369217,-14.0948055556886,-24.9762660351449,4.42093611077311,-8.75668641036866,-19.9181976537638,-13.6828380021099,49.9537638142025,-12.1782600623619,-24.8735478396038,-3.36299981556573
2.09581260262642,-14.0197354789888,-24.9150837330038,4.34814427267216,-8.5906949691621,-19.7968979288841,-13.625395579029,49.5868390036715,-11.9612907264932,-24.7103553295237,-3.36820769675944
2.01291259472906,-13.9450122959662,-24.8553784677349,4.27702237104341,-8.42938382812536,-19.6765573262,-13.5675806420446,49.2211601052127,-11.7430673620803,-24.5736438527372,-3.35203008335912
1.93763387707857,-13.8706184714991,-24.797431666972,4.20779691707959,-8.27270408615474,-19.557576334965,-13.5096984106877,48.8576410498863,-11.523600802994,-24.4628323683452,-3.31443965149361
1.87041149251713,-13.7965474388492,-24.7415065919735,4.14068374951999,-8.12056614640001,-19.4403540525894,-13.4520753121898,48.4971710464205,-11.3029430749052,-24.377022491821,-3.25559150874065
1.81148423461838,-13.7228053177208,-24.687844472372,4.07588562924819,-7.97284350563578,-19.3252815875872,-13.3950533958273,48.1406047897757,-11.0811926747662,-24.3150624109391,-3.17580359166709
1.7608950325597,-13.649412047431,-24.6366611858153,4.01358995792406,-7.82937726528679,-19.2127353412294,-13.3389841581134,47.7887532296195,-10.8584989249336,-24.2756120649533,-3.07553436960203
1.71850423790372,-13.576401907859,-24.5881445782482,3.95396666832511,-7.68998119011199,-19.1030704097854,-13.2842219698602,47.4423750603708,-10.6350652730559,-24.257206693699,-2.95535927982213
1.68401500462061,-13.5038234226921,-24.5424524849068,3.89716633357052,-7.5544471397195,-18.9966143460224,-13.2311172999911,47.10216907594,-10.4111514112754,-24.2583167080503,-2.81594711384727
1.65700778649438,-13.431738662753,-24.4997114770528,3.84331853678693,-7.42255070781831,-18.8936614918263,-13.1800099187215,46.7687675041105,-10.1870740711289,-24.2774024863474,-2.65803736438738
1.63697925342154,-13.3602219918669,-24.4600163269818,3.79253053044421,-7.29405691130819,-18.7944680565718,-13.1312222463226,46.4427304039596,-9.96320633069791,-24.3129630458433,-2.48241936730802
1.62338017696622,-13.2893583226845,-24.4234301550134,3.74488619940716,-7.16872577256256,-18.6992480782118,-13.0850530017516,46.1245411827395,-9.73997526920187,-24.3635776420241,-2.28991390534452
1.61564726485272,-13.2192409729561,-24.3899851982621,3.70044532963135,-7.0463176406509,-18.6081703686382,-13.0417712979611,45.8146032711306,-9.51785783890125,-24.4279393681061,-2.08135774280078
1.61322535888422,-13.1499692311813,-24.3596841237789,3.65924317883586,-6.92659811100351,-18.521356509402,-13.0016113213277,45.5132379876533,-9.29737490289691,-24.5048799248854,-1.85759133100315
1.61557840483573,-13.0816457518418,-24.3325017995965,3.62129034574744,-6.80934243259246,-18.4388799265934,-12.9647677160258,45.2206836205172,-9.07908350203265,-24.59338502219,-1.61944968784293
1.62218963940127,-13.0143739031753,-24.308387436234,3.58657293693711,-6.69433933371449,-18.3607660354188,-12.9313917703238,44.9370957543882,-8.8635675388034,-24.6926003630764,-1.36775624232404
1.63255310201861,-12.9482551849017,-24.2872670161949,3.55505303097406,-6.58139424504823,-18.2869934071346,-12.9015884748267,44.6625488691887,-8.65142716888182,-24.8018287358968,-1.10331927604446
1.6461596315833,-12.8833868215389,-24.2690459359841,3.52666943685391,-6.47033194400583,-18.2174958751181,-12.8754144971894,44.3970392373704,-8.4432672529623,-24.9205192310983,-0.826930509054238
1.66248088832541,-12.8198596223124,-24.2536117899184,3.50133873779888,-6.36099867868258,-18.1521654671244,-12.8528770963391,44.140489141419,-8.23968524782406,-25.0482498860142,-0.53936537127922
1.68095471914128,-12.7577561841072,-24.2408372255589,3.47895660398479,-6.25326384558602,-18.0908560330208,-12.8339339825151,43.8927524185809,-8.04125892430246,-25.1847051290726,-0.241384556339279
1.70097451163752,-12.6971495000925,-24.230582798997,3.45939935055248,-6.14702129134418,-18.0333874344786,-12.8184941179588,43.6536213118232,-7.84853430517662,-25.329649330017,0.0662634595525308
1.72188424857399,-12.6381020219554,-24.2226997591244,3.44252571288729,-6.04219029073893,-17.9795501722875,-12.8064194471335,43.4228345690596,-7.66201421762169,-25.4828976667711,0.382839171371932
1.74297997396515,-12.5806652060164,-24.217032696859,3.4281788109608,-5.9387162314731,-17.9291103413034,-12.7975275432611,43.2000866951452,-7.48214784362022,-25.6442854496759,0.707608263208994
1.76351747979745,-12.5248795521289,-24.2134220079783,3.41618827717835,-5.83657101801218,-17.8818148164583,-12.7915951554666,42.9850382280565,-7.30932162087741,-25.813637012324,1.03983747564726
1.78272533048867,-12.4707751200185,-24.2117061343015,3.40637252476869,-5.73575319669388,-17.8373965828785,-12.78836263313,42.7773268814409,-7.1438517978191,-25.990735276373,1.37879033008061
1.79982191032838,-12.4183724824873,-24.2117235650332,3.39854113461703,-5.63628780366937,-17.7955801282166,-12.7875391877729,42.5765793686351,-6.98597888661055,-26.1752931112048,1.72372294674204
1.81403499949211,-12.367684051269,-24.2133145963889,3.392497337681,-5.538225944869,-17.7560868161017,-12.7888089258943,42.3824236987489,-6.83586419672082,-26.3669276216666,2.07388020868957
1.82462240974537,-12.3187156921316,-24.2163228616973,3.38804056790944,-5.44164412717382,-17.7186401581828,-12.7918375484853,42.1945017159789,-6.69358857187219,-26.5651384900825,2.42849251388262
1.83089237744901,-12.271468533646,-24.220596654929,3.38496905654854,-5.34664336444123,-17.6829709018006,-12.7962795692151,42.0124816417872,-6.55915338795408,-26.7692914510271,2.78677332298724
