Finger Velocity,Scap_X,Scap_Y,Scap_Z,Shoulder horiz abd-adduction,Shoulder flexion-extension,Shoulder internal-external rotation,elbow flexion-extension,forearm pronation-supination,wrist flexion-extension,wrist radial-ulnar deviation
0.244311637958908,-15.9293521481023,-22.9013037786254,7.34991795286185,-16.9345892409717,-24.2565696931067,-18.9148347424908,58.7698395117775,-26.7143399325491,-25.5847739647463,-9.36514141945237
0.318947215176455,-15.9131958415373,-22.9164251896325,7.33391744120224,-16.9246753170188,-24.2756720090531,-18.8921908751374,58.8612840185952,-26.6188340256836,-25.3346136547909,-9.64764740488071
0.461919595708058,-15.8957127085686,-22.9304746855631,7.31654350165516,-16.9105953503672,-24.2883549352156,-18.8673562500823,58.9585912923975,-26.5243726217122,-25.0750126412019,-9.94782794638048
0.64662846650942,-15.876706702002,-22.9429132014623,7.29778260004203,-16.8917311352047,-24.2933785608651,-18.8400459078824,59.0606148199276,-26.4319136408442,-24.8088866067775,-10.2630739454556
0.861009648992178,-15.8559454549923,-22.9531795477361,7.27763486121941,-16.8674599963496,-24.2894617333789,-18.8099419198613,59.1659876217108,-26.3424107768839,-24.5393789163931,-10.590426815013
1.09970405493769,-15.8331581933866,-22.9607013165416,7.25611517629165,-16.8371658670139,-24.2752935787903,-18.7766948680359,59.2731265217789,-26.2567978298977,-24.2697781639796,-10.9266467095784
1.35962351999189,-15.8080344079407,-22.9649064996015,7.23325377606576,-16.8002509348491,-24.2495461720003,-18.7399263012316,59.3802406793232,-26.1759726921349,-24.0034234218773,-11.268294835602
1.63842110595401,-15.780223431489,-22.9652354714476,7.20909617225697,-16.7561475398795,-24.2108883045539,-18.6992321416206,59.4853444514014,-26.1007810809541,-23.7436006032101,-11.6118269882522
1.93394603082568,-15.7493350555845,-22.9611529617734,7.18370240185141,-16.704329988322,-24.158000271942,-18.6541869810489,59.5862745501531,-26.0320001683368,-23.4934341846146,-11.9536946417867
2.24403564329605,-15.7149413014424,-22.952159625335,7.15714555606371,-16.6443259452604,-24.0895895709191,-18.6043491834644,59.6807113426856,-25.9703223336421,-23.255779087087,-12.2904493544295
2.56643692684482,-15.6765794306399,-22.9378028226128,7.12950962826836,-16.575727086305,-24.004407360101,-18.5492666969855,59.7662040235683,-25.9163393484361,-23.0331177133004,-12.6188459882815
2.89878439532588,-15.6337562427229,-22.9176862531308,7.10088676820928,-16.4981987187455,-23.901265494864,-18.4884834719007,59.8401992743392,-25.870527378966,-22.8274669515182,-12.9359403259034
3.23860557745732,-15.5859536611303,-22.8914781363608,7.0713740758824,-16.4114881200547,-23.7790539034266,-18.4215463737005,59.9000729155316,-25.8332332601839,-22.6402993847616,-13.2391770873162
3.58334142565199,-15.5326355575621,-22.8589177081371,7.04107010206759,-16.3154313811881,-23.6367580305613,-18.3480124689396,59.9431639589713,-25.8046625540099,-22.4724820573726,-13.5264650548737
3.9303754034063,-15.4732557106736,-22.8198198854465,7.01007123955549,-16.2099585804292,-23.4734760448802,-18.2674565448964,59.966810387097,-25.7848699466135,-22.3242350687865,-13.7962368901819
4.27706775579673,-15.4072667412514,-22.7740780402921,6.97846818846604,-16.0950971471249,-23.2884354886022,-18.1794787033953,59.9683859248557,-25.773752550352,-22.1951111294956,-14.0474921486719
4.62079272200099,-15.3341298171203,-22.721664905131,6.94634266281616,-15.9709733016711,-23.0810090456602,-18.0837118481955,59.9453370271491,-25.7710466421114,-22.0839961621818,-14.2798228476375
4.95897705463012,-15.2533248814706,-22.6626316993242,6.91376447760831,-15.8378114810048,-22.8507291147867,-17.9798288659862,59.8952192799631,-25.7763282886542,-21.9891301539458,-14.4934216486116
5.28913852354431,-15.1643611315053,-22.5971056125491,6.88078912039976,-15.6959316842003,-22.5973008972604,-17.8675492838516,59.8157324087421,-25.7890181898643,-21.9081467978166,-14.6890732506366
5.60892326056517,-15.0667874610846,-22.5252858093309,6.84745587350758,-15.5457447065217,-22.3206137380795,-17.7466451742182,59.7047531056046,-25.8083909252256,-21.8381299955793,-14.8681299678729
5.91614092096147,-14.9602025795773,-22.4474381369231,6.81378651813943,-15.387745273488,-22.020750485114,-17.6169460794603,59.5603649255672,-25.8335886289434,-21.7756849957445,-15.0324727193967
6.20879673461194,-14.8442645267224,-22.3638887333873,6.77978462327266,-15.2225031364402,-21.6979946462075,-17.4783427521702,59.380884555458,-25.863638952039,-21.717021757775,-15.1844588464906
6.48511961300782,-14.7186993182897,-22.2750167448928,6.74543540006919,-15.0506522475487,-21.3528351278668,-17.3307895598983,59.1648838231207,-25.8974769967937,-21.6580480163047,-15.3268583374314
6.74358557729727,-14.5833084792754,-22.1812463699286,6.710706085425,-14.8728781986894,-20.9859683355661,-17.1743054816122,58.911206888763,-25.9339707283213,-21.5944694426924,-15.462780185459
6.98293588216313,-14.4379752503148,-22.0830384538386,6.67554680530573,-14.6899041855971,-20.5982974144193,-17.0089737140419,58.6189821496636,-25.9719491810899,-21.5218942571682,-15.5955907159878
7.20218933263233,-14.2826692886115,-21.9808818596172,6.63989186076655,-14.5024758382249,-20.1909284230732,-16.8349399949841,58.2876285015147,-26.0102325928953,-21.4359396228742,-15.728825797837
7.40064842663,-14.1174497261876,-21.8752848364491,6.60366137802282,-14.3113453278034,-19.7651632760338,-16.6524098285368,57.9168557419325,-26.0476634309142,-21.3323371613593,-15.8660989179926
7.57789910501823,-13.9424664944455,-21.7667665920285,6.56676326780542,-14.1172552114053,-19.3224893662411,-16.461644858499,57.5066590776685,-26.0831371453386,-21.2070350135543,-16.0110071480274
7.7338040521766,-13.7579598732646,-21.6558492489554,6.52909544542798,-13.9209225037423,-18.8645658842026,-16.2629586739919,57.0573079024366,-26.1156314172604,-21.0562940813916,-16.1670370388914
7.8684896624969,-13.564258272891,-21.5430503342603,6.49054826784537,-13.7230234771395,-18.3932069661259,-16.0567123378731,56.5693292341733,-26.1442326766605,-20.8767764281857,-16.3374724299424
7.98232696940109,-13.3617743052411,-21.4288759199834,6.45100714492714,-13.5241796878717,-17.9103619140724,-15.8433098989758,56.043486420871,-26.1681587665532,-20.6656242471377,-16.5253060473742
8.07590702063951,-13.1509992461188,-21.3138145061492,6.41035527789254,-13.3249457075832,-17.4180928262271,-15.6231940867597,55.4807539226129,-26.1867768253144,-20.4205282643877,-16.733156613063
8.15001137240118,-12.9324960304527,-21.1983317166269,6.36847646833758,-13.1257989928447,-16.9185500544865,-15.3968423047743,54.8822891337173,-26.1996157403105,-20.1397848584355,-16.9631930181963
8.20557855923916,-12.7068909589863,-21.0828658601087,6.32525792880925,-12.9271322452883,-16.4139459744497,-15.1647629585534,54.2494023070432,-26.2063728618049,-19.8223414825444,-17.2170669790472
8.24366756909732,-12.4748643271269,-20.9678243883117,6.28059301547223,-12.7292484987662,-15.90652761262,-14.9274920942754,53.5835256762117,-26.2069150123274,-19.4678301197691,-17.4958555238803
8.26541950288179,-12.2371402147118,-20.8535812603429,6.23438380101767,-12.5323590287026,-15.3985487245814,-14.6855902951069,52.8861828451376,-26.2012741370119,-19.0765884722923,-17.8000146745934
8.27201871429994,-11.9944756982297,-20.7404751986964,6.18654341539098,-12.33658403175,-14.8922419475426,-14.4396397771893,52.1589594401499,-26.1896381784045,-18.6496684294047,-18.1293457606735
8.26465479527604,-11.7476497627127,-20.6288088021398,6.13699810273364,-12.1419558947299,-14.3897916496445,-14.1902416342159,51.4034759134788,-26.1723379042806,-18.1888311541452,-18.4829758802484
8.24448678256894,-11.4974521970734,-20.5188484655717,6.08568897044691,-11.9484247781279,-13.8933080602783,-13.9380131858143,50.6213632602186,-26.1498304652969,-17.6965279811077,-18.8593540285087
8.21261090177635,-11.2446727525732,-20.41082504659,6.03257343306711,-11.7558661838905,-13.4048031951878,-13.6835853827206,49.8142422690381,-26.1226804207411,-17.1758663359852,-19.2562642606582
8.17003302947315,-10.9900908290485,-20.3049352119018,5.97762637215425,-11.5640901505471,-12.9261690013214,-13.4276002104337,48.9837067691414,-26.09153886544,-16.6305601630357,-19.6708568627595
8.1176468429306,-10.7344659291074,-20.2013433925535,5.92084103929701,-11.3728517093143,-12.4591580535788,-13.1707080172123,48.1313111625501,-26.0571211546694,-16.064864904105,-20.0996978423878
8.0562183477514,-10.4785290897827,-20.1001842730971,5.86222972354429,-11.1818622364071,-12.0053670478304,-12.9135646791955,47.2585623529899,-26.0201836175314,-15.4834978197088,-20.5388361974261
7.98637714329861,-10.2229754667634,-20.0015657323417,5.80182419233823,-10.9908013479955,-11.5662232566786,-12.6568285135701,46.3669160251018,-25.9814996385578,-14.8915452114147,-20.9838875221268
7.90861442792062,-9.96845820933044,-19.9055721382309,5.73967590301683,-10.7993290063773,-11.1429740490325,-12.4011568651156,45.4577771096568,-25.9418355809138,-14.2943587909359,-21.430131673615
7.82328738961471,-9.71558372460938,-19.8122678761716,5.6758559754889,-10.6070975395571,-10.7366795223629,-12.1472023195684,44.5325041831236,-25.9019271498123,-13.6974440686124,-21.8726214639499
7.73062930322281,-9.46490838857632,-19.7217009643799,5.6104549179923,-10.4137633178509,-10.3482082550431,-11.8956085326634,43.5924174660351,-25.8624568703,-13.1063442372398,-22.3062986618876
7.63076438999234,-9.2169367205972,-19.6339065923774,5.54358210589853,-10.2189978721262,-9.97823614857514,-11.6470057034581,42.6388099913712,-25.8240333656319,-12.5265235317981,-22.7261130568137
7.52372631015258,-8.97212100036189,-19.5489104215403,5.4753650249677,-10.0224982714789,-9.62724828519856,-11.4020057636084,41.6729614211125,-25.7871731037212,-11.9632543161964,-23.1271400643604
7.40947906541228,-8.73086227147489,-19.4667315142989,5.40594830035615,-9.82399660226572,-9.29554366824088,-11.1611973941989,40.6961539070553,-25.7522852489391,-11.4215120922717,-23.5046924052746
7.28793908680812,-8.49351264358822,-19.3873848027751,5.33549253574671,-9.62326840942808,-8.98324264562512,-10.9251410073315,39.709689322468,-25.7196602085983,-10.9058822157775,-23.8544217728418
7.15899736510633,-8.26037877373672,-19.31088305086,5.26417298078554,-9.42013997961472,-8.69029675712066,-10.6943638348095,38.7149071352984,-25.6894623861322,-10.4204813662307,-24.1724070809846
7.02254062927496,-8.0317263779586,-19.2372382918841,5.192178032339,-9.21449436621272,-8.41650070769757,-10.4693552548828,37.7132021584041,-25.661727539903,-9.968895840187,-24.4552267772122
6.87847077206724,-7.8077855981286,-19.1664627351718,5.11970756188591,-9.00627607890541,-8.16150615517387,-10.2505624694325,36.7060414050927,-25.6363649972266,-9.55413764850937,-24.7000137119833
6.72672193780518,-7.5887570278248,-19.09856913715,5.04697105249674,-8.79549438294145,-7.92483700118606,-10.0383866259858,35.6949793000346,-25.6131647917595,-9.17861832615995,-24.9044920785959
6.5672749048842,-7.37481818590894,-19.0335706367292,4.97418552621669,-8.58222517471209,-7.70590587737252,-9.83317946507998,34.6816705418594,-25.5918095860011,-8.84413941923138,-25.0669968816873
6.40016859683886,-7.16613021800009,-18.9714800667819,4.90157324601143,-8.36661142163619,-7.50403151361863,-9.63524056343328,33.6678799802637,-25.5718910198547,-8.55189788432821,-25.1864771739171
6.22550872833776,-6.96284460449624,-18.9123087742696,4.82935918402283,-8.14886217677171,-7.31845665952771,-9.44481523523869,32.655488953981,-25.5529299066172,-8.30250417073615,-25.2624848574881
6.04347372864751,-6.76510965838742,-18.8560650068177,4.7577682571256,-7.92925020025316,-7.14836620855672,-9.26209314662889,31.6464976305429,-25.5343994970958,-8.09601056710545,-25.2951511547851
5.85431818208643,-6.57307660441974,-18.8027519472146,4.68702234039273,-7.70810823894852,-6.99290515491298,-9.08720769256441,30.6430229866822,-25.5157508635422,-7.93194745476182,-25.2851529290232
5.6583740838577,-6.38690504047625,-18.7523654941973,4.61733708065775,-7.48582403378953,-6.85119600520908,-8.92023618133025,29.6472921656607,-25.4964393257883,-7.80936536335629,-25.2336709326273
5.4560502343952,-6.206767591599,-18.7048918956493,4.54891854878486,-7.26283414171092,-6.72235527742269,-8.76120086792325,28.6616310471063,-25.4759507614188,-7.72688110388476,-25.1423418414758
5.24783009183829,-6.03285357929393,-18.6603053401578,4.48195979178541,-7.03961667471276,-6.60550875209637,-8.61007087238165,27.6884479725291,-25.4538266196942,-7.68272668773719,-25.013205662532
5.03426837730269,-5.86537154742745,-18.6185656080686,4.4166373732807,-6.8166830738023,-6.49980519165054,-8.46676501334916,26.7302126934177,-25.4296864996107,-7.67480015009972,-24.8486498456171
4.81598668826766,-5.70455051338211,-18.5796158765706,4.35310801981347,-6.59456905635745,-6.40442830569928,-8.3311555817067,25.7894307550109,-25.4032472544165,-7.70071770526204,-24.6513512399875
4.59366832832604,-5.55063984895161,-18.5433807660467,4.29150551617183,-6.37382490563564,-6.31860680592659,-8.20307307101845,24.868613697229,-25.3743377443176,-7.75786682169442,-24.4242169346768
4.3680525126459,-5.40390773797623,-18.5097647069742,4.23193800886181,-6.15500530774618,-6.24162245743693,-8.08231186490097,23.9702456348231,-25.3429085703239,-7.84345981767638,-24.1703249890219
4.13992806265722,-5.26463820446643,-18.4786506981598,4.17448587718024,-5.9386589768155,-6.17281608975491,-7.96863685199229,23.0967469549532,-25.309036374386,-7.95458749188262,-23.8928660485019
3.91012666444677,-5.13312675304566,-18.4498995189792,4.11920031181396,-5.72531833519982,-6.11159157654717,-7.86179089665197,22.2504360257892,-25.2729225657191,-8.0882721822419,-23.5950868054789
3.67951573569091,-5.009674710729,-18.4233494518981,4.06610269999077,-5.51548952589756,-6.05741782762381,-7.76150303980109,21.4334899321462,-25.234886607435,-8.24151953748915,-23.2802361866078
3.4489909271441,-4.8945824048161,-18.3988165666154,4.01518485781484,-5.30964302553855,-6.00982886127089,-7.66749724312074,20.6479053354184,-25.1953542511084,-8.41136820236295,-22.9515150417948
3.21946827721108,-4.7881413562682,-18.376095611347,3.96641008552996,-5.10820510067241,-5.96842204283791,-7.5795014277364,19.8954605908431,-25.1548413283199,-8.59493655013311,-22.6120300020329
2.99187604165276,-4.69062570976464,-18.3549615477869,3.91971496361211,-4.91155031507549,-5.93285459189014,-7.49725650325699,19.1776802466097,-25.1139338956225,-8.78946554291262,-22.264752083848
2.76714623415163,-4.60228315677661,-18.3351717524684,3.87501176589095,-4.71999526020286,-5.90283848301448,-7.420525040622,18.4958030032369,-25.0732656853412,-8.99235678182798,-21.9124805430854
2.54620593619507,-4.52332563316445,-18.3164688861862,3.83219134291421,-4.53379364956018,-5.87813390296813,-7.34909921655191,17.8507541366019,-25.0334939368693,-9.20120485299831,-21.5578124066523
2.32996846558536,-4.45392008777557,-18.2985844035951,3.79112632246943,-4.3531328902902,-5.85854148107231,-7.28280765031442,17.243123290709,-24.9952747595462,-9.41382319582785,-21.2031180263603
2.11932453161312,-4.39417962474489,-18.2812426409378,3.75167447977177,-4.17813221860868,-5.84389357118736,-7.22152076409223,16.6731484304718,-24.9592391926579,-9.62826291778394,-20.850522895452
1.9151335528151,-4.34415532011367,-18.2641653887763,3.7136821421811,-4.00884245644486,-5.83404491698808,-7.16515432606701,16.1407066114391,-24.9259710699443,-9.84282424527878,-20.5018958387617
1.71821537444843,-4.30382900200908,-18.2470768342071,3.67698751050158,-3.84524741162311,-5.82886306664278,-7.11367088635721,15.6453120713508,-24.8959876631047,-10.0560606164291,-20.1588435286976
1.5293427069319,-4.27310726204853,-18.2297087437816,3.64142380278249,-3.68726690118995,-5.82821891609024,-7.06707890050321,15.1861219754811,-24.8697238768766,-10.2667757656912,-19.8227110930917
1.34923473346872,-4.25181693416506,-18.2118057512971,3.60682215802797,-3.53476132731451,-5.83197775413778,-7.02542945589978,14.7619499513775,-24.8475205126555,-10.4740144902647,-19.4945883782841
1.17855254544004,-4.2397022372856,-18.1931306104789,3.57301427228749,-3.38753768005545,-5.83999115875567,-6.98881065987404,14.3712873262178,-24.8296168351685,-10.677048074981,-19.175321238007
1.01789744146589,-4.23642373249727,-18.1734692690634,3.53983477139211,-3.24535678511411,-5.85209005183533,-6.95733989009627,14.0123317317229,-24.8161474015999,-10.8753555278672,-18.865527075622
0.867813847455955,-4.24155919548463,-18.1526356169276,3.50712334879541,-3.10794156283798,-5.86807916072822,-6.93115422761286,13.6830224752326,-24.807142875928,-11.0686018025995,-18.5656138075681
0.728800071301827,-4.25460645210914,-18.130475757376,3.47472671338096,-2.97498602365085,-5.88773306375048,-6.91039947963626,13.3810818080125,-24.8025343724824,-11.2566140669368,-18.27580143909
0.601333195002105,-4.27498816935493,-18.1068716506232,3.44250040187402,-2.84616470055301,-5.91079391875556,-6.89521825277259,13.1040609754849,-24.8021607579362,-11.4393568838494,-17.9961455083055
0.485921261182664,-4.30205853622959,-18.0817439866503,3.41031051319893,-2.72114221485246,-5.93697089238712,-6.88573756156106,12.8493897321338,-24.8057782867402,-11.6169069901955,-17.7265617081951
