Finger Velocity,Scap_X,Scap_Y,Scap_Z,Shoulder horiz abd-adduction,Shoulder flexion-extension,Shoulder internal-external rotation,elbow flexion-extension,forearm pronation-supination,wrist flexion-extension,wrist radial-ulnar deviation
1.60663686152092,-16.3654351891201,-28.6234615760286,6.7132123756194,-12.7202971313985,-23.0218842611247,-17.2737228546881,57.6479805670325,-27.4430716023496,-15.0388302865464,-6.5867522884326
2.1259880205045,-16.4019867774866,-28.6371817255849,6.6292631092885,-12.6174249749669,-23.0064851471135,-17.1985197058971,57.7249177858379,-27.2118757710433,-14.5198920895193,-7.03650533959235
2.70670911897802,-16.4431767130824,-28.6453180889477,6.53946399457141,-12.5129135022713,-22.979677741742,-17.1146152341149,57.829733969568,-26.9818402333544,-13.9922226373357,-7.49099086820232
3.342850078901,-16.4890222300542,-28.6472192620282,6.44404706542274,-12.4077893061566,-22.9393807700778,-17.0221885348931,57.9651388084234,-26.7545044641979,-13.4626868098323,-7.94393460176522
4.03000727785088,-16.5394940565667,-28.6422397757923,6.34327636543101,-12.3031531089318,-22.883468395501,-16.9215337187501,58.1337120450278,-26.5312112799031,-12.9382482701737,-8.38911872173284
4.76419154575393,-16.594516634978,-28.6297453026641,6.23743877287314,-12.20016499817,-22.8098024295524,-16.8130493582241,58.3378650163328,-26.3130556226659,-12.4257104939039,-8.82063646016468
5.54137457587605,-16.6539691911965,-28.609118247799,6.12683406236411,-12.1000270482524,-22.7162659189355,-16.6972234143879,58.5798047469595,-26.1008385336677,-11.9314568655772,-9.23314061774523
6.35730370427687,-16.7176875902111,-28.5797637346096,6.01176455071851,-12.0039636076136,-22.6007973031137,-16.5746141082856,58.8615014242289,-25.8950279609017,-11.4612056472409,-9.62207024196725
7.2074356644096,-16.7854668959247,-28.541115938037,5.89252471781561,-11.9131996946345,-22.4614243400549,-16.4458274612053,59.1846600121608,-25.695727888065,-11.0197944954902,-9.98384122889429
8.08692905993851,-16.8570645417592,-28.4926446602055,5.76939120952744,-11.8289380894843,-22.2962970321238,-16.3114924422704,59.5506966609188,-25.5026570787615,-10.611006861885,-10.3159892810198
8.99066869049495,-16.9322040113664,-28.4338619883991,5.64261361855578,-11.7523358199912,-22.1037188449085,-16.172234816437,59.9607204413971,-25.3151385090574,-10.2374494212189,-10.6172570855731
9.91330847634311,-17.0105789235616,-28.3643288307395,5.51240640556196,-11.6844808084169,-21.8821755927347,-16.0286508743514,60.4155207827994,-25.132100312625,-9.9004860484143,-10.8876213629394
10.8493256990593,-17.0918574109915,-28.2836610956909,5.3789422738397,-11.6263694672957,-21.6303614573165,-15.8812822479406,60.9155608156054,-24.9520887837955,-9.60023018916401,-11.1282592125896
11.793082070386,-17.1756866775614,-28.1915352715317,5.24234725070133,-11.5788860041778,-21.347201700727,-15.7305929737172,61.4609766313415,-24.7732936683093,-9.33559402256984,-11.3414566957894
12.7388885346177,-17.2616976153511,-28.0876931722709,5.10269765970854,-11.5427841195297,-21.0318717229769,-15.5769498603902,62.0515822773074,-24.5935856150059,-9.10438976425595,-11.5304656841115
13.6810714560814,-17.3495093585951,-27.9719456447909,4.960019090575,-11.5186716661536,-20.6838121937266,-15.4206070499707,62.6868801191323,-24.4105652684843,-8.90347590719477,-11.699317575374
14.6140382828671,-17.4387336519319,-27.8441750739885,4.81428739004048,-11.5069986948253,-20.3027400547235,-15.26169543821,63.3660760307088,-24.2216230654125,-8.72893922341676,-11.8526044650131
15.5323410718445,-17.5289789139735,-27.7043365736459,4.66543161229935,-11.5080491570762,-19.888655243425,-15.1002173563719,64.0880987127428,-24.0240083706479,-8.5763020053545,-11.9952397111715
16.4307364867583,-17.6198538860293,-27.5524578056517,4.5133387892242,-11.5219363916399,-19.441843029816,-14.9360466372767,64.8516223062098,-23.8149061672625,-8.4407433166787,-12.1322105208287
17.3042410797018,-17.7109707695676,-27.3886374232103,4.35786031643496,-11.5486024012767,-18.9628718922741,-14.7689339221729,65.6550913686222,-23.5915191126705,-8.31732292295003,-12.2683352038156
18.1481808552728,-17.801947775064,-27.2130421784302,4.19881970617244,-11.5878208354813,-18.4525868955192,-14.5985168318107,66.4967472306283,-23.3511524179461,-8.20119705720179,-12.4080370895083
18.9582343043653,-17.8924110308879,-27.0259027664061,4.03602143202415,-11.6392035230098,-17.9120985901586,-14.4243344331844,67.3746547525439,-23.0912987399827,-8.08781622337252,-12.5551457960967
19.7304682832438,-17.9819958351647,-26.8275084981093,3.86926057962204,-11.7022103311488,-17.3427675401158,-14.2458452811648,68.2867285530377,-22.8097201411105,-7.97309680501688,-12.7127346538265
20.4613663025358,-18.0703472736999,-26.6182009121559,3.69833301527593,-11.7761620555726,-16.7461846990537,-14.0624481987613,69.2307578813166,-22.5045241995288,-7.85356022774778,-12.8830007476097
21.1478489776518,-18.157120266221,-26.3983664606667,3.52304578513677,-11.8602559652094,-16.1241479877246,-13.8735048840018,70.204429446849,-22.1742315540834,-7.72643565516314,-13.0671914571561
21.7872865737513,-18.2419791343177,-26.168428439155,3.34322745716715,-11.9535835486054,-15.4786355591368,-13.6783634021137,71.2053477041006,-21.8178325253983,-7.58972446369914,-13.2655787606299
22.3775037513719,-18.324596804552,-25.9288383692234,3.15873811619827,-12.0551499415669,-14.8117763690048,-13.4763816407272,72.2310523057055,-21.4348309466291,-7.44222682276114,-13.4774801396401
22.9167767800968,-18.4046537698821,-25.6800670787714,2.96947872011086,-12.163894468945,-14.1258187860401,-13.2669498668286,73.2790326678881,-21.0252739239043,-7.28353243775478,-13.7013228265729
23.4038236344567,-18.4818369330979,-25.4225957516867,2.77539952698089,-12.2787117134647,-13.423098069562,-13.0495116192121,74.346739811624,-20.5897668747784,-7.11397882655464,-13.9347464317219
23.837787516556,-18.5558384488381,-25.1569072323248,2.5765073171142,-12.3984725357667,-12.7060036019927,-12.823582296598,75.431595828704,-20.1294737969181,-6.93458141780747,-14.1747376592285
24.2182144622425,-18.626354669877,-24.8834778652528,2.3728711670721,-12.5220445110177,-11.9769467849239,-12.5887649578024,76.5310014597747,-19.6461032411868,-6.74694034860698,-14.4177898054157
24.5450257812285,-18.6930852959727,-24.6027701279237,2.1646265822877,-12.6483113108875,-11.2383304833711,-12.3447630248403,77.6423423579035,-19.1418808738055,-6.55312916690428,-14.6600789703636
24.8184861562274,-18.7557328253873,-24.3152262778594,1.95197784965965,-12.7761906342859,-10.4925208296874,-12.0913897494032,78.762994648677,-18.6195098134015,-6.3555707710449,-14.8976483778167
25.039168282181,-18.8140024187161,-24.02126319144,1.73519852234222,-12.9046503663644,-9.74182208110975,-11.828574445646,79.8903303911988,-18.0821201406611,-6.1569058989155,-15.1265919131068
25.2079149646011,-18.8676022936123,-23.7212685214334,1.51462999503577,-13.0327227183076,-8.98845507598597,-11.5563656005704,81.0217234997597,-17.5332091229511,-5.9598593571647,-15.3432280195704
25.325799616693,-18.9162447686066,-23.4155982478025,1.29067817469789,-13.1595161707645,-8.23453966700883,-11.274931055862,82.1545566106485,-16.9765737914529,-5.7671089914649,-15.5442555279929
25.3940860989477,-18.9596480600611,-23.1045756442396,1.0638083027772,-13.2842251136594,-7.48208133533762,-10.9845555227236,83.2862292802428,-16.4162375692253,-5.58116215320089,-15.7268839163027
25.4141888328417,-18.9975389082953,-22.7884916334793,0.834538039424683,-13.4061371439644,-6.73296201584892,-10.6856357459437,84.4141677849339,-15.8563726884765,-5.40424408828344,-15.8889319622916
25.3876340923943,-19.0296560695388,-22.4676064595154,0.603428972910181,-13.5246380453168,-5.98893500034859,-10.3786736677751,85.5358366631283,-15.3012201653907,-5.23820220488662,-16.0288907411503
25.3160233335706,-19.0557546640275,-22.1421525668527,0.371076764539662,-13.6392145225441,-5.25162364142898,-10.064267949128,86.6487519955365,-14.7550091278547,-5.08442952409856,-16.1459493088137
25.2009993615721,-19.075611322603,-21.8123385476856,0.138100180244347,-13.7494547975248,-4.52252346036893,-9.74310419031537,87.7504962648644,-14.221877309933,-4.94380977708003,-16.2399839840122
25.0442160595021,-19.0890300279222,-21.4783539974298,-0.0948707014735617,-13.8550471934363,-3.80300716849521,-9.41594417478312,88.8387344763661,-13.7057945168084,-4.81668563418779,-16.3115146251771
24.8473123084215,-19.0958485023107,-21.1403751058946,-0.327206777014415,-13.9557768501743,-3.09433204019457,-9.08361445128134,89.9112310683165,-13.2104908017233,-4.70285052773906,-16.3616334161997
24.6118906184462,-19.0959449529394,-20.7985708034364,-0.558292339822226,-14.0515207334633,-2.39764902643965,-8.74699456454533,90.9658670122053,-12.7393909689796,-4.6015635532962,-16.3919131955773
24.3395008639898,-19.0892449489422,-20.4531092759611,-0.787537260441667,-14.1422411282276,-1.71401297338104,-8.4070052191009,92.0006564119631,-12.2955568235507,-4.51158606553412,-16.404303142537
24.0316293751116,-19.0757281770817,-20.104164657395,-1.01438855191714,-14.2279778412466,-1.04439331592634,-8.0645966040053,93.0137618718341,-11.8816383362065,-4.43123786535789,-16.4010196373232
23.6896934839086,-19.0554348031377,-19.7519237023097,-1.23834096565861,-14.3088393747803,-0.389684653607893,-7.72073702957336,94.0035079211738,-11.4998345970262,-4.35847032702799,-16.3844394228696
23.3150414638684,-19.0284711545338,-19.3965922353473,-1.45894628512339,-14.3849933676504,0.249283317521812,-7.37640195337066,94.9683918626668,-11.1518651069161,-4.29095340203563,-16.3570009922084
22.9089576361038,-18.9950144374188,-19.0384011705369,-1.67582100992043,-14.4566566268634,0.871736956748128,-7.03256342006604,95.9070915412241,-10.8389516240265,-4.22617309115893,-16.3211186320081
22.4726722553389,-18.9553162139341,-18.6776118970256,-1.88865215842681,-14.5240850816525,1.47695125879214,-6.69017991418007,96.8184697004326,-10.5618104577874,-4.16153569094404,-16.2791119643721
22.0073756369293,-18.9097043982255,-18.3145208414468,-2.09720097055446,-14.5875639736992,2.06424410989028,-6.35018662377234,97.7015747837064,-10.3206548076835,-4.09447495853543,-16.2331522965505
21.5142358506869,-18.858583583471,-17.9494630406097,-2.30130436603601,-14.6473985489849,2.63297237219665,-6.01348613091595,98.5556382264795,-10.1152064985371,-4.02255833249282,-16.1852257265776
20.994419194115,-18.8024335808354,-17.5828145891083,-2.50087410462466,-14.7039054460131,3.18252985749235,-5.68093957244957,99.3800684529462,-9.94471628473205,-3.94358847169043,-16.1371118479146
20.4491125722088,-18.7418061243301,-17.2149938629932,-2.69589369546744,-14.7574049014597,3.71234716839699,-5.3533583405857,100.174441923554,-9.80799178171708,-3.85569660712184,-16.0903761008567
19.8795468573537,-18.6773197630306,-16.8464614601944,-2.88641320090732,-14.8082138373632,4.22189331399894,-5.0314964111689,100.938491676335,-9.70343201836703,-3.75742454255687,-16.0463733486003
19.287020283557,-18.6096530194593,-16.4777188354539,-3.07254216252215,-14.8566398580657,4.71067894352708,-4.71604340119311,101.672093870877,-9.629067573947,-3.64779258269659,-16.0062600896164
18.672920945051,-18.5395359411323,-16.1093056354029,-3.2544409388178,-14.9029761583624,5.17826097749613,-4.40761847411353,102.375252882411,-9.58260526568216,-3.52635119073876,-15.971012801424
18.0387475192464,-18.4677402140724,-15.741795756205,-3.43231078577394,-14.947497313921,5.62424834729102,-4.10676523415038,103.048085507571,-9.56147638536813,-3.39321475851097,-15.9414501689045
17.3861274155816,-18.3950680444323,-15.3757921589711,-3.60638303615031,-14.9904558917409,6.04830849276713,-3.81394777269444,103.690804836629,-9.5628875298485,-3.24907649703164,-15.9182573058746
16.7168316612105,-18.3223400470051,-15.0119204976905,-3.77690774343517,-15.0320797953224,6.45017423122852,-3.52954803739734,104.303704325478,-9.58387310402279,-3.09520412072176,-15.9020104725649
16.0327859670383,-18.2503824050612,-14.6508216448152,-3.94414215394398,-15.0725702568962,6.82965060759556,-3.25386467558324,104.887142568749,-9.62134858144613,-2.93341670097049,-15.8932011838099
15.3360775681811,-18.1800135827975,-14.2931432369547,-4.1083393572486,-15.1121004032728,7.18662135848509,-2.98711345939045,105.441529232659,-9.67216359894692,-2.76604378054359,-15.892258959209
14.6289575963323,-18.1120308803977,-13.9395304025887,-4.2697374400067,-15.1508143376498,7.52105466415971,-2.72942934564092,105.967312549415,-9.73315396811437,-2.59586852341454,-15.8995722554535
13.9138389129051,-18.0471971240165,-13.5906158728276,-4.42854943173914,-15.1888266861417,7.83300791725707,-2.48087017249675,106.46496870385,-9.80119173195041,-2.42605727144282,-15.9155073195489
13.1932895070994,-17.9862277785959,-13.2470097123895,-4.58495428873384,-15.22622255721,8.12263130043183,-2.24142194530453,106.934993363382,-9.87323248458607,-2.26007834504729,-15.9404248032233
12.4700217390903,-17.9297787581029,-12.9092889376999,-4.73908912277527,-15.2630578655244,8.39017002933929,-2.01100560303242,107.377895521723,-9.94635929534286,-2.10161323314955,-15.9746939941185
11.7468778835154,-17.8784351849607,-12.5779873099026,-4.8910428511875,-15.2993599870017,8.635965178175,-1.78948507812102,107.794193746524,-10.0178227172047,-1.95446345692119,-16.0187044716331
11.0268126018811,-17.8327013211681,-12.253585601277,-5.04085142338529,-15.3351287368343,8.86045306136382,-1.57667637430986,108.184414836088,-10.085076495179,-1.82245635596147,-16.0728749147184
10.3128731453686,-17.7929918625012,-11.9365026327717,-5.18849475875661,-15.370337687286,9.06416319648643,-1.37235730617146,108.549094795792,-10.1458087110131,-1.70935283712078,-16.1376587101697
9.60817826389269,-17.7596247576326,-11.62708736604,-5.33389550059234,-15.4049358559662,9.24771491732584,-1.17627748788032,108.888781942512,-10.1979682057026,-1.61875977287744,-16.2135459691701
8.915896975552,-17.7328156862649,-11.3256123036205,-5.47691964415779,-15.4388497928713,9.41181273853265,-0.98816813845783,109.204041842468,-10.2397862103933,-1.55404928972757,-16.301061586235
8.23922853343005,-17.7126743017968,-11.0322684065999,-5.61737903227656,-15.4719860783428,9.55724059554757,-0.807751290538693,109.495463692114,-10.2697931835373,-1.51828670213194,-16.4007590814665
7.58138510820338,-17.6992023113977,-10.7471616843977,-5.75503563250327,-15.5042342213905,9.6848551001316,-0.634748046714778,109.763667666324,-10.2868308877733,-1.51416836652315,-16.5132101513347
6.94557886273457,-17.6922934297877,-10.4703115504588,-5.88960742714866,-15.5354699239763,9.79557796539607,-0.468885611090994,110.009312683098,-10.2900597416602,-1.5439702813246,-16.6389901010899
6.33501516901189,-17.6917352062523,-10.2016509720179,-6.02077567806729,-15.5655586526745,9.89038776005286,-0.309902917885432,110.233103969623,-10.2789614592156,-1.6095078591892,-16.7786596185451
5.75289357033094,-17.6972126907409,-9.94102837256149,-6.14819328616773,-15.5943594347942,9.97031114441199,-0.157554768799391,110.43579976779,-10.2533369593359,-1.71210694873265,-16.932743634467
5.20241742931153,-17.7083138735478,-9.68821117682148,-6.2714939527908,-15.6217287756021,10.0364137219477,-0.0116144686783164,110.618216502707,-10.2132995001265,-1.85258587437071,-17.101708248699
4.68681144545407,-17.7245368003972,-9.44289082785158,-6.39030185542094,-15.6475245833396,10.0897906176064,0.128124984121068,110.781231771175,-10.1592629818196,-2.03124798658982,-17.2859368436471
4.20934231981434,-17.745298227653,-9.2046890602668,-6.50424155994943,-15.6716099938122,10.1315568751054,0.261851034838313,110.925784595914,-10.0919253813406,-2.24788397088633,-17.4857065415879
3.77333010686982,-17.7699436411641,-8.97316518585529,-6.61294790199613,-15.693857006385,10.1628377542335,0.38973286302159,111.052872530998,-10.0122473457034,-2.50178293596864,-17.7011660768574
3.38212420156462,-17.797758420562,-8.74782413779783,-6.71607558768175,-15.7141498744314,10.1847590058157,0.511923610943682,111.163545384181,-9.92142608444474,-2.79175106299821,-17.9323159332397
3.03899794901555,-17.8279798930623,-8.52812502555878,-6.81330829557453,-15.732388229818,10.1984372046144,0.62856331410803,111.25889552982,-9.82086485606711,-3.11613636626758,-18.1789912693439
2.74689595525026,-17.859809990936,-8.3134899694397,-6.90436710198246,-15.7484899551847,10.2049702270928,0.739782298672544,111.340045006571,-9.71213853032091,-3.47285798019349,-18.440847822822
2.50797117015221,-17.8924282093801,-8.10331300681952,-6.98901809270209,-15.7623938401127,10.2054279712977,0.845704821678348,111.408129808068,-9.5969559217349,-3.85943843519772,-18.7173507644447
2.32291717840639,-17.9250045609607,-7.89696888884704,-7.06707906225111,-15.7740620597554,10.200843430825,0.946452745652206,111.464281961781,-9.47711981881048,-4.27303762011327,-19.0077664025417
2.1902625554756,-17.9567122401941,-7.69382161712003,-7.13842523795972,-15.7834824954376,10.1922042539742,1.04214906180229,111.509610131266,-9.35448584279662,-4.71048747510125,-19.3111566603261
2.10597406407129,-17.9867397443488,-7.49323260553046,-7.202994001631,-15.7906708810793,10.1804449414065,1.13292111176226,111.545179555989,-9.23092140227533,-5.16832683007374,-19.6263762860543
2.06370869965676,-18.0143022403511,-7.29456839235127,-7.26078861314085,-15.79567271469,10.1664398585375,1.21890340898391,111.571992160251,-9.10826601456068,-5.64283615374557,-19.9520727795047
2.05573942346529,-18.0386520198494,-7.09720786790327,-7.31188096501897,-15.798564827282,10.1509972575273,1.30024002247665,111.590967632963,-8.98829413502325,-6.13007229835171,-20.2866890435051
2.07418077409805,-18.0590879421106,-6.90054901613857,-7.35641341337614,-15.7994564581407,10.1348545081967,1.37708654734193,111.60292622229,-8.87268141563514,-6.6259036041885,-20.628468810206
2.11202749990872,-18.0749638222562,-6.70401518628959,-7.39459973852656,-15.7984896525015,10.1186747159605,1.44961173722561,111.608573913661,-8.76297507350378,-7.12604592969044,-20.9754649336729
2.16373738390295,-18.0856957716387,-6.50706091066918,-7.42672528762081,-15.795838784869,10.1030448527842,1.51799890469187,111.608490563973,-8.6605688432853,-7.62610024732149,-21.3255506553597
2.22537040202183,-18.0907685275447,-6.30917727112604,-7.45314633933922,-15.7917090282425,10.0884754504461,1.58244720113645,111.603121444978,-8.56668283352538,-8.12159236941351,-21.6764339262195
2.29443698087326,-18.0897408142989,-6.10989679827812,-7.47428870508166,-15.7863336413369,10.0754018199816,1.64317286682224,111.592772509783,-8.4823484970018,-8.60801516597837,-22.0256748219318
2.36961056990006,-18.0822497596697,-5.90879787199209,-7.49064554386098,-15.7799700275892,10.0641866854825,1.7004104988192,111.577609550308,-8.40839883831553,-9.08087336627804,-22.3707060369401
2.45040774082675,-18.0680143604143,-5.70550857963857,-7.50277432680016,-15.7728946159223,10.0551240655139,1.75441433017591,111.557661269389,-8.34546389859461,-9.5357307514229,-22.7088563991611
2.53688957456094,-18.0468379621598,-5.49970997584155,-7.51129285205621,-15.7653967046841,10.0484442015262,1.80545945758416,111.532826150478,-8.29397146417068,-9.96825927106348,-23.0373773031633
2.62940739662023,-18.0186096999517,-5.29113867054347,-7.51687419026629,-15.757771483572,10.0443193141005,1.85384290350867,111.502882869729,-8.25415283801177,-10.3742893540309,-23.3534718978807
2.72840059408334,-17.9833048385725,-5.0795886535577,-7.52024043827015,-15.7503125005865,10.0428699590939,1.89988435597474,111.46750386436,-8.22605339012575,-10.7498604316823,-23.6543267761898
2.83424725240923,-17.9409839544894,-4.86491225063514,-7.52215517616622,-15.7433038760942,10.0441717542103,1.94392639849205,111.426271559655,-8.20954747104586,-11.0912704683554,-23.937145804916
2.94716471451742,-17.8917909119625,-4.64702010995633,-7.52341456063378,-15.7370125897486,10.0482622553516,1.9863340301476,111.378696677728,-8.20435713927493,-11.3951231143224,-24.1991856149319
3.06715457929811,-17.8359496033638,-4.42588015091897,-7.52483704804286,-15.7316811820042,10.0551477884215,2.02749329207384,111.324238010531,-8.21007403244084,-11.658370984857,-24.4377921517855
