Finger Velocity,Scap_X,Scap_Y,Scap_Z,Shoulder horiz abd-adduction,Shoulder flexion-extension,Shoulder internal-external rotation,elbow flexion-extension,forearm pronation-supination,wrist flexion-extension,wrist radial-ulnar deviation
1.42242935660059,-14.3499210016101,-35.8485285630862,4.56421184545505,-17.7677604547092,-32.0632568794815,-4.32432889774135,69.8457321356792,-17.2051675317588,-23.9978026184396,3.69495948159018
1.71013536917832,-14.3591272700351,-35.8367097870834,4.62041785298777,-17.7901807093269,-32.0271180124817,-4.29886795212788,69.7948440219419,-17.0374735232826,-24.0604632793693,3.80267239154807
2.01715638021878,-14.3703523842412,-35.8221689296421,4.67754699067885,-17.8119947675657,-31.9970793360902,-4.27279082108153,69.7478754444998,-16.8529090749288,-24.1399028962967,3.92188364727917
2.34095957544913,-14.3836599528419,-35.8047740165032,4.73501660828679,-17.8326543543357,-31.9740863487182,-4.24622066808661,69.7057180206234,-16.6517067314365,-24.2360088846836,4.05122744604701
2.67887933691025,-14.3990940630105,-35.7844194229703,4.79221870113126,-17.8515718132289,-31.959009551135,-4.21927846189407,69.6692087096827,-16.4342808276127,-24.348336302017,4.18900916869054
3.02806719998935,-14.4166774738536,-35.7610275478791,4.84853101238601,-17.8681270040797,-31.9526194577041,-4.19207917509118,69.6391049688906,-16.2012226955666,-24.476107931334,4.33323822018513
3.38548028261218,-14.4364099872702,-35.7345496558661,4.9033285866971,-17.8816747808765,-31.9555622455329,-4.16472764565616,69.6160596567798,-15.9532920853058,-24.6182230747022,4.48167371741936
3.74789203369147,-14.4582670334878,-35.704965815924,4.95599542387056,-17.891552822151,-31.9683367161121,-4.13731414380875,69.6005962332005,-15.6914049620554,-24.7732744640053,4.63188155087204
4.11191725304317,-14.482198517896,-35.6722838784352,5.00593588326398,-17.8970895945403,-31.9912732470658,-4.10990971610321,69.5930848206194,-15.4166179500451,-24.9395724739435,4.78130068326459
4.47404700279209,-14.5081279844686,-35.6365374509132,5.05258550945858,-17.8976122557913,-32.0245153886649,-4.08256141545388,69.5937196933486,-15.1301097789939,-25.1151757076628,4.92731598967916
4.83069076214511,-14.5359521551288,-35.5977828618981,5.0954209851081,-17.892454343255,-32.0680047033212,-4.05528756534567,69.6024987499114,-14.8331601519066,-25.2979269723967,5.06733450129761
5.17822402239855,-14.5655408999752,-35.5560951470597,5.13396896415569,-17.8809631448819,-32.1214693536744,-4.02807324404519,69.6192054993885,-14.5271264971117,-25.4854936428016,5.19886162201545
5.5130399414868,-14.5967376792065,-35.5115631487288,5.16781359370174,-17.8625067073701,-32.1844168226312,-4.00086620410178,69.6433940553396,-14.2134191078033,-25.675411420294,5.3195737961728
5.8316038937695,-14.6293604768758,-35.4642838798678,5.19660258987783,-17.8364804924076,-32.2561310127196,-3.97357345667595,69.6743775808119,-13.8934752211105,-25.8651305373082,5.42738426007439
6.13050986710158,-14.6632032242437,-35.4143563539479,5.22005178543687,-17.8023137357529,-32.3356738410114,-3.94605874309191,69.7112205654202,-13.5687326485082,-26.0520635172361,5.52049892312097
6.40653772980372,-14.6980376889178,-35.361875116725,5.23794811059126,-17.7594755864945,-32.4218913310368,-3.91814108621088,69.7527352428805,-13.2406036334755,-26.2336336719925,5.59746007332067
6.65671044375743,-14.7336157833619,-35.3069237356839,5.25015100593296,-17.7074811046962,-32.5134241049087,-3.88959456773074,69.7974823800109,-12.9104496714821,-26.4073235820775,5.65717642695477
6.87835035204416,-14.769672220326,-35.2495685124891,5.25659230269495,-17.6458971820218,-32.6087220918939,-3.86014942479102,69.8437765912781,-12.5795580736624,-26.5707228323806,5.69893895561912
7.06913372842001,-14.8059274147118,-35.1898526861631,5.25727464457471,-17.5743484297142,-32.706063189539,-3.82949450960946,69.8896962581199,-12.2491210792863,-26.7215742539672,5.72242283253261
7.22714284478226,-14.842090506973,-35.1277913910901,5.25226856487506,-17.4925230535698,-32.8035755389669,-3.79728111502045,69.9330980592602,-11.9202183095744,-26.857817863611,5.72767666434617
7.3509148912131,-14.8778623688894,-35.0633676240257,5.24170836829142,-17.4001787037363,-32.8992630082141,-3.7631281400074,69.9716360487608,-11.5938032933027,-26.9776316401939,5.71510084965753
7.43948716700831,-14.9129384529188,-34.9965294557924,5.22578699431831,-17.297148246331,-32.9910334188076,-3.72662855210319,70.0027851552874,-11.2706946774837,-27.0794682643025,5.68541737476492
7.49243804153855,-14.9470113626355,-34.92718869231,5.20475005529044,-17.1833453558413,-33.0767290031094,-3.68735709030759,70.0238689176847,-10.951572567028,-27.1620869821982,5.6396335817601
7.50992324573043,-14.9797730521531,-34.8552211426076,5.17888924320515,-17.0587697774259,-33.1541585440854,-3.64487913086368,70.0320912119844,-10.6369802243943,-27.2245798319425,5.5790024219373
7.49270707415646,-15.0109166025921,-34.7804685873981,5.14853528611054,-16.9235120634686,-33.2211306258675,-3.59876060052861,70.024571656543,-10.3273311197032,-27.2663915868619,5.50498147936907
7.44218801685158,-15.0401375685746,-34.7027424628798,5.11405061298583,-16.7777575545196,-33.2754874144137,-3.54857876899377,69.9983843024022,-10.0229210757353,-27.287332930848,5.41919267826509
7.36041814349829,-15.0671349330097,-34.6218291861226,5.07582186365977,-16.6217893537157,-33.3151383937927,-3.49393369304447,69.9505991271759,-9.72394501912208,-27.2875865685794,5.32338413215346
7.25011515140229,-15.0916117502222,-34.5374969590575,5.0342523621412,-16.4559900367925,-33.3380935033152,-3.43446003162227,69.8783257585943,-9.43051763633891,-27.267706161593,5.21939509877889
7.11466525682918,-15.1132755919987,-34.4495038081537,4.98975465886844,-16.2808418480729,-33.3424951483278,-3.36983891189469,69.7787587664962,-9.14269704257888,-27.2286081354298,5.10912451354277
6.95811392947858,-15.1318389347374,-34.3576065562156,4.94274324013078,-16.0969251581474,-33.3266485857521,-3.29980950470788,69.649223787261,-8.86051040806087,-27.1715565059768,4.99450313428673
6.78513971978754,-15.1470196357903,-34.2615703865732,4.89362750139953,-15.9049150023158,-33.2890502097398,-3.22417996179423,69.4872236861551,-8.58398035942011,-27.0981409331935,4.8774689927071
6.60100406015382,-15.158541642489,-34.1611786467793,4.84280508421562,-15.7055755790585,-33.2284132835188,-3.14283737489914,69.2904839197058,-8.31315089519704,-27.010248263075,4.7599456482993
6.41146710142067,-15.1661360604561,-34.0562425429148,4.79065568086572,-15.4997526617751,-33.1436906845576,-3.05575643932708,69.0569962276066,-8.04811153462297,-26.9100279070578,4.64382267782661
6.22265699356008,-15.1695426833302,-33.9466103903009,4.73753541422348,-15.2883639607042,-33.0340942556532,-2.96300654341936,68.7850597561106,-7.78901846331025,-26.7998515594692,4.53093787159594
6.04087890001959,-15.1685120585854,-33.8321761075069,4.68377189907797,-15.0723875602215,-32.8991103859583,-2.86475705972593,68.4733186882953,-7.53611154555916,-26.682267978203,4.42306071324615
5.87235273748099,-15.1628081354767,-33.7128866673289,4.62966008365527,-14.8528486429417,-32.7385114812214,-2.76128067356515,68.120795433435,-7.2897262341595,-26.559953849256,4.32187688317435
5.72287800694985,-15.1522115101759,-33.588748253654,4.5754589535769,-14.6308047884724,-32.5523630181776,-2.6529546349588,67.7269184205888,-7.05029962154648,-26.4356620907124,4.22897373842738
5.59744207574417,-15.136523248297,-33.4598309196159,4.52138915423704,-14.4073301945277,-32.3410259144719,-2.54025985030028,67.2915435695264,-6.81837014159639,-26.3121692553743,4.14582694126566
5.49981323621007,-15.1155692261716,-33.326271599338,4.46763155392922,-14.183499207855,-32.1051539905973,-2.42377774385388,66.8149685921864,-6.59457074649732,-26.192223882475,4.07378857074235
5.43218401889478,-15.0892048910743,-33.1882753888063,4.41432673416597,-13.9603695719393,-31.8456863661191,-2.30418482915334,66.297939417904,-6.37961573600725,-26.0784976787511,4.01407711389336
5.39494047414423,-15.0573203000751,-33.0461150768028,4.3615753601799,-13.7389657994444,-31.5638347266696,-2.18224494851016,65.7416482325431,-6.17428178435381,-25.9735412754172,3.96776969539777
5.38661784258804,-15.0198452616509,-32.9001289708339,4.30943935539143,-13.520263061935,-31.2610655194688,-2.05879917101845,65.1477228635576,-5.97938406130265,-25.8797460406167,3.93579679599791
5.40406204735601,-14.9767543785766,-32.7507171209711,4.25794377928743,-13.3051719618836,-30.939077276681,-1.93475338878771,64.5182075156847,-5.79574864321094,-25.7993130669076,3.91893956290188
5.44276516993424,-14.928071778148,-32.5983360901048,4.20707929171713,-13.0945245207725,-30.5997734215604,-1.81106372296297,63.8555351530502,-5.6241826282079,-25.7342300367365,3.91782965302411
5.49730425331845,-14.8738753164686,-32.4434924468507,4.1568050823933,-12.8890616901676,-30.2452310775011,-1.68871994990732,63.1624921181928,-5.46544349185846,-25.6862562263271,3.93295139444543
5.56180144016391,-14.8143000555351,-32.2867351674815,4.10705215062945,-12.6894226675372,-29.8776665672829,-1.56872727638543,62.4421758553723,-5.32020924381421,-25.6569154711355,3.96464593339864
5.63033847993721,-14.749540833879,-32.1286471333207,4.05772682725411,-12.4961362628762,-29.4993984442187,-1.45208690873578,61.6979468410562,-5.18905087862774,-25.6474965232373,4.01311698611891
5.6972870846909,-14.6798537827841,-31.969835910003,4.00871443084508,-12.3096145078847,-29.1128090177929,-1.3397759526386,60.9333760015801,-5.07240846878822,-25.6590599235524,4.07843785485624
5.75754433062756,-14.605556678398,-31.8109239998871,3.95988294900402,-12.1301486334537,-28.7203054052032,-1.23272724037969,60.1521890075299,-4.97057204439416,-25.6924503087825,4.16055948462984
5.80668122898373,-14.5270280609519,-31.6525387663288,3.91108664462167,-11.9579074773846,-28.3242811494365,-1.13180971742508,59.3582088735036,-4.88366815918802,-25.7483129570956,4.25931948978473
5.84102149311779,-14.4447050910506,-31.4953022333501,3.86216951176316,-11.7929383284387,-27.9270793987212,-1.03781003290365,58.5552982644783,-4.81165276414186,-25.8271133068234,4.3744522017515
5.85766903788132,-14.3590801465472,-31.3398209653666,3.81296853739848,-11.6351701595435,-27.5309585516404,-0.95141596258118,57.7473028268107,-4.75431069456322,-25.9291581247725,4.50559981626455
5.85450028940437,-14.2706961902511,-31.1866762337006,3.76331675092427,-11.4844191448789,-27.1380611460841,-0.873202239488572,56.9379967374068,-4.71126172118533,-26.0546169620396,4.65232461995146
5.83013357630819,-14.1801409575439,-31.0364146848172,3.71304605791996,-11.340396292472,-26.7503866157903,-0.803619276026537,56.1310315130881,-4.68197272703686,-26.2035425717938,4.81412208352647
5.7838841936194,-14.0880400249833,-30.8895397390222,3.66198986059675,-11.2027169628024,-26.369768363569,-0.742985139853101,55.3298889555151,-4.66577517468496,-26.3758891389941,4.99043440209021
5.71571077887802,-13.9950488310593,-30.7465039597858,3.60998546836198,-11.0709119917282,-25.9978554176314,-0.691481005408091,54.5378389348829,-4.66188666369743,-26.5715274969868,5.18066392722024
5.62615651459111,-13.9018437348323,-30.6077026314837,3.55687629877764,-10.9444400943451,-25.6360987631317,-0.649150156378082,53.7579025467018,-4.66943509656757,-26.790256925058,5.38418591560822
5.51628725010143,-13.8091122210195,-30.473468758407,3.50251386401496,-10.8227011927648,-25.2857422905363,-0.615900475288523,52.9928210169909,-4.68748382404458,-27.0318135495586,5.60036010495627
5.38762773715875,-13.7175423911135,-30.3440696487844,3.44675953651238,-10.7050502841574,-24.9478181833242,-0.59151023594576,52.2450305844715,-4.71505616566779,-27.2958757269896,5.82854076895017
5.24209662877233,-13.6278119165535,-30.2197051804697,3.38948609564259,-10.5908114484297,-24.6231464767681,-0.575636917550736,51.5166434515797,-4.75115790491043,-27.5820670070973,6.06808503835203
5.08194057035458,-13.5405766680293,-30.1005077702491,3.330579073857,-10.4792915926302,-24.3123384478407,-0.567828682496899,50.8094347659015,-4.79479670431483,-27.8899573317795,6.31835936617476
4.90966752649894,-13.4564592709472,-29.9865439957337,3.26993793753647,-10.3697935463406,-24.0158034360133,-0.567538095117822,50.1248354698429,-4.84499780227492,-28.2190630403507,6.57874406012998
4.72797938250891,-13.3760378671008,-29.877817753368,3.20747714585226,-10.2616281618212,-23.7337586450226,-0.574137601346335,49.4639307441589,-4.90081575745913,-28.5688460714796,6.84863582747704
4.53970381399917,-13.2998353820905,-29.7742747815794,3.14312712815503,-10.154125134442,-23.4662414406533,-0.586936241017921,48.8274636794967,-4.96134233527417,-28.9387125383971,7.12744830256571
4.34772543452668,-13.2283096029023,-29.6758083364007,3.07683521050073,-10.0466423396905,-23.2131236436842,-0.605197029662768,48.2158437480176,-5.02571085470627,-29.3280106780178,7.41461058183921
4.15491633933942,-13.1618443592723,-29.5822657774524,3.0085665100628,-9.93857357739172,-22.974127322044,-0.628154430584749,47.6291596156802,-5.0930974420468,-29.7360281068348,7.70956390083908
3.96406641398826,-13.1007420783748,-29.4934558014324,2.93830480656929,-9.82935471520242,-22.7488416098544,-0.65503134900665,47.0671958254008,-5.16271970395483,-30.1619883953033,8.01175676283223
3.77781423377674,-13.0452179481874,-29.4091560453337,2.86605339469074,-9.71846832206756,-22.5367401184374,-0.685055125382096,46.5294528773897,-5.2338333752374,-30.6050471728422,8.32063904041649
3.59858009939234,-12.9953958818053,-29.3291207749314,2.79183591912704,-9.60544696236653,-22.3371985491064,-0.717472082995234,46.0151702238136,-5.30572754496493,-31.0642882134199,8.63565575410201
3.42850374272296,-12.9513064214812,-29.2530883828039,2.71569719061706,-9.48987536653767,-22.1495121633772,-0.751560284187472,45.5233516765755,-5.37771912257471,-31.5387201262222,8.95624131314594
3.26939039598806,-12.9128866549705,-29.1807884491324,2.6377039735014,-9.3713916995528,-21.9729128088138,-0.786640259557605,45.0527927041185,-5.44914724698982,-32.0272743133653,9.28181494005597
3.12266998430326,-12.8799821383663,-29.1119481650425,2.55794572688686,-9.2496881270201,-21.8065852373281,-0.822083594679982,44.6021090759033,-5.51936832103559,-32.5288047315746,9.61177779628417
2.98937473336565,-12.8523507345017,-29.0462979740193,2.47653527734373,-9.12451084847988,-21.6496824908279,-0.857319390356881,44.1697663123217,-5.58775223662443,-33.042089738942,9.94551203928881
2.87013993622378,-12.8296681940764,-28.9835763432127,2.39360940185559,-8.99565973974137,-21.5013401724558,-0.891838744313564,43.7541094235197,-5.65368014612349,-33.5658360083676,10.2823817582442
2.76523056172101,-12.811535239451,-28.9235336275751,2.3093293002207,-8.86298772211758,-21.3606894747302,-0.925197513033662,43.3533924814023,-5.71654387504647,-34.0986842537504,10.6217355348239
2.67459277977597,-12.7974858677477,-28.8659350337701,2.22388093141597,-8.72639995393049,-21.2268688973681,-0.957017681094305,42.9658076635736,-5.77574682877531,-34.6392164108105,10.9629102865601
2.5979249155292,-12.7869965738925,-28.8105627279854,2.13747517750353,-8.58585291764933,-21.0990346494723,-0.986987676867245,42.5895135176155,-5.83070608739652,-35.1859639362408,11.3052360520441
2.53475799715156,-12.7794962025503,-28.7572171624,2.05034778339885,-8.44135345462413,-20.9763697828443,-1.01486192208505,42.2226622910839,-5.88085534299945,-35.7374169809523,11.6480414236543
2.48453330826764,-12.7743761637497,-28.705717718241,1.96275900550524,-8.29295777955241,-20.8580921383653,-1.04045979887806,41.8634262389341,-5.92564840175875,-36.2920342925176,11.990659382229
2.44666422584169,-12.7710007827543,-28.6559027785831,1.87499289295141,-8.14077049090635,-20.7434612035824,-1.06366408877571,41.5100228570651,-5.9645631001057,-36.8482537639037,12.3324333137125
2.42057237457815,-12.7687175937539,-28.607629351607,1.78735612718377,-7.98494358331747,-20.6317839790142,-1.08441881763617,41.1607390087972,-5.99710561128464,-37.4045035534541,12.6727229846134
2.40569316264601,-12.766867424702,-28.5607723646954,1.70017635995871,-7.82567546145822,-20.5224199387813,-1.10272635571044,40.8139539160465,-6.02281520284598,-37.9592136691266,13.0109102349978
2.40145187733324,-12.7647941550006,-28.5152237409531,1.613800012135,-7.66320994711092,-20.4147851551898,-1.11864358712647,40.4681609788517,-6.0412695308624,-38.5108278692533,13.3464041391763
2.40721728433539,-12.7618540575815,-28.4708913544596,1.52858951887901,-7.49783525663133,-20.3083556432407,-1.13227697901651,40.1219883672892,-6.05209052809471,-39.0578157013553,13.6786454027738
2.42224379011968,-12.7574246611951,-28.4276979437153,1.44492002447295,-7.32988290211864,-20.2026699740505,-1.1437764384948,39.7742183030822,-6.05495087954531,-39.598684474853,14.0071098112238
2.44561480763274,-12.7509130872609,-28.3855800477865,1.36317554009831,-7.15972643819243,-20.0973312075787,-1.15332793217933,39.4238049175327,-6.04958100488174,-40.1319909321735,14.3313106076442
2.47619876800503,-12.7417638297102,-28.3444870152415,1.28374458620107,-6.98777994500486,-19.9920082027016,-1.16114494473171,39.0698905367477,-6.03577640395423,-40.6563523517658,14.6507997469299
2.51262574543924,-12.7294659569939,-28.3043801181667,1.20701535630826,-6.8144961171835,-19.8864363705245,-1.16745895809616,38.7118202015223,-6.01340517207603,-41.1704568107817,14.965168048092
2.55328801744396,-12.7135597230606,-28.2652317802665,1.13337046496006,-6.64036382490218,-19.7804179391785,-1.17250922930151,38.3491541790982,-5.98241544025861,-41.6730723783325,15.2740443567208
2.59636339188147,-12.6936425787092,-28.227024900711,1.06318137208535,-6.46590502868176,-19.6738217944452,-1.1765322201868,37.9816781796101,-5.94284242767275,-42.1630551022577,15.5770939317096
2.63985685386424,-12.6693745764007,-28.1897522287428,0.996802598274897,-6.29167096051735,-19.5665829541688,-1.17975108130459,37.6094109722572,-5.89481471566075,-42.6393557672033,15.8740163596316
2.68165449100425,-12.6404831602995,-28.153415724626,0.9345658533822,-6.11823752331706,-19.4587017297864,-1.18236561606811,37.2326091204809,-5.83855928791514,-43.1010255049393,16.1645433429503
2.71958361324862,-12.606767328962,-28.1180258357324,0.876774197615005,-5.9461998989283,-19.3502426268103,-1.18454315472929,36.8517686197554,-5.77440485357673,-43.5472204022759,16.448436686432
2.75147398689015,-12.5681011509797,-28.0836006240503,0.823696349423203,-5.77616638502317,-19.2413330352003,-1.1864107540361,36.4676233137915,-5.70278299814497,-43.9772052619157,16.7254867165709
2.77521656582432,-12.5244366048571,-28.0501647010702,0.775561256527216,-5.60875150236908,-19.1321617552187,-1.18804910575098,36.0811400736345,-5.62422680281329,-44.3903566267764,16.9955112195181
2.7888175739236,-12.4758057051844,-28.0177479535299,0.732553056385005,-5.44456843335572,-19.0229773902519,-1.18948847908279,35.6935108357605,-5.53936672602895,-44.7861650999017,17.2583548065355
2.79044702733897,-12.4223218699636,-27.9863840736941,0.694806564056701,-5.28422088024888,-18.9140866142636,-1.19070693116917,35.3061416922483,-5.44892371853161,-45.1642369108914,17.5138884660148
2.77848172761446,-12.3641804803504,-27.9561089350229,0.662403430111855,-5.12829447448729,-18.8058522914138,-1.19163089474781,34.9206392982579,-5.35369971238947,-45.5242946138649,17.7620089762754
2.75154347214478,-12.3016585842276,-27.9269588728575,0.635369102650907,-4.97734792478088,-18.6986913960154,-1.19213810275428,34.5387949130813,-5.25456577404546,-45.8661767545422,18.0026378362028
2.70853385216258,-12.235113697844,-27.8989689379973,0.613670705480337,-4.83190415162787,-18.5930726597204,-1.19206265647103,34.1625664294915,-5.15244834406583,-46.1898363194985,18.2357194058489
2.64866771649708,-12.1649816640043,-27.8721711926321,0.59721591541197,-4.69244170577585,-18.4895138623322,-1.19120191214434,33.794058774851,-5.04831410035851,-46.4953377911589,18.4612180275365
2.57150839983469,-12.0917735310805,-27.8465931197639,0.585852894482464,-4.55938679722967,-18.388578680441,-1.18932477080409,33.4355030831496,-4.9431540631609,-46.7828526866991,18.6791140186157
