Finger Velocity,Scap_X,Scap_Y,Scap_Z,Shoulder horiz abd-adduction,Shoulder flexion-extension,Shoulder internal-external rotation,elbow flexion-extension,forearm pronation-supination,wrist flexion-extension,wrist radial-ulnar deviation
0.567042909788321,-11.9409681637349,-33.9075041949718,2.91958694016578,-18.1406107775265,-33.7523439027591,-3.58055194393677,68.7945448332055,-16.0316339188903,-27.9462896677762,11.1100117433324
0.723698681971757,-11.9347673042223,-33.856662130815,2.97769915649343,-18.184359930856,-33.6692541976656,-3.62526496897224,68.7423780377735,-16.0285637395854,-27.6703155349078,10.8500387343427
0.899188513080292,-11.9248097863824,-33.7996700088702,3.03673364266644,-18.2327024188139,-33.5722559897419,-3.6733731209287,68.6822910834437,-16.0252715581813,-27.3668367886593,10.5612777467003
1.09268155768539,-11.9106951724234,-33.7362651316138,3.09606434743846,-18.2851590178208,-33.4606545242284,-3.72468101273002,68.6133830755705,-16.0219688389777,-27.0365776570175,10.2441680801863
1.30343799751341,-11.8920356605395,-33.6662207661533,3.15503669625424,-18.341129251591,-33.3338391040326,-3.77892862341525,68.5347008470259,-16.018902566223,-26.6806467828441,9.89955976253316
1.53067759117303,-11.8684596140292,-33.589352239011,3.21298153204278,-18.3999004105249,-33.1912887156734,-3.83579346886854,68.4452449982883,-16.0163528082171,-26.3005429538172,9.52872668970057
1.7735177518436,-11.8396146148617,-33.5055228949342,3.2692301950299,-18.4606604033757,-33.0325756994265,-3.89489472664729,68.3439776191301,-16.0146291611304,-25.8981555633045,9.13337346822762
2.03094486257157,-11.8051700643128,-33.4146496762127,3.32313030736686,-18.5225139814652,-32.8573675432242,-3.95579923760152,68.2298316277372,-16.0140662163909,-25.4757591162152,8.71563500159759
2.30180315419338,-11.7648193719573,-33.3167080702074,3.37406176932406,-18.5845016756517,-32.6654269649866,-4.01802918090544,68.1017215839329,-16.0150182749757,-25.0360009517456,8.27806779021064
2.58479389154113,-11.7182817829401,-33.2117361833688,3.42145244093055,-18.6456206397061,-32.4566105031701,-4.081071105182,67.958555757928,-16.0178535826164,-24.5818812549638,7.82363190157084
2.87848124661837,-11.6653038954412,-33.0998377264075,3.46479297915259,-18.7048465156204,-32.230865862631,-4.14438591253365,67.7992491734352,-16.0229483725967,-24.1167244052027,7.35566264561434
3.18130288844838,-11.6056609179887,-32.9811837324522,3.50365032608723,-18.761155432521,-31.988228271392,-4.20741934470099,67.6227373015343,-16.0306809815877,-23.6441408098936,6.87783120236249
3.49158410245619,-11.5391577106529,-32.8560128746086,3.53767939456639,-18.813545314845,-31.7288161020816,-4.26961251154795,67.4279900620482,-16.0414262646793,-23.167978645344,6.39409382677312
3.80755463567073,-11.4656296450801,-32.7246303002816,3.56663256733646,-18.8610557886144,-31.4528260028284,-4.33041202241629,67.2140257877891,-16.0555504948113,-22.6922653948294,5.90862979969077
4.12736765569302,-11.3849433054788,-32.5874049560899,3.59036670783877,-18.9027861126369,-31.1605277651876,-4.38927931871499,66.9799248140942,-16.0734068959835,-22.2211397290924,5.42576897727455
4.44912030861337,-11.2969970366943,-32.4447654365177,3.60884746979904,-18.937910702797,-30.852259130525,-4.44569885548189,66.7248423632121,-16.095331926116,-21.7587750658954,4.94991056450471
4.77087541165729,-11.2017213285919,-32.2971944474025,3.62215078698258,-18.9656919497799,-30.5284207031948,-4.4991848444824,66.4480203992504,-16.1216423890025,-21.3092969777106,4.4854355179188
5.09068384474484,-11.0990790112799,-32.1452220276488,3.63046152305804,-18.9854901508201,-30.1894711021768,-4.5492863607334,66.1487981397909,-16.1526334139928,-20.8766973600292,4.036615654821
5.40660722429717,-10.9890652260588,-31.9894177154915,3.6340693632795,-18.9967704863589,-29.8359224449357,-4.59559073099947,65.8266209306153,-16.188577299741,-20.4647488062468,3.60752300464797
5.71674045949371,-10.8717071335221,-31.8303818776527,3.63336212944496,-18.9991070738036,-29.4683362183793,-4.63772525435528,65.4810472229667,-16.2297231790796,-20.0769228833953,3.20194312115812
6.01923380951976,-10.7470633217767,-31.6687364422631,3.6288167883261,-18.9921842215217,-29.0873195511389,-4.67535742595856,65.1117534398478,-16.2762974296433,-19.7163159400102,2.82329596525056
6.31231408204916,-10.615222882436,-31.5051152920045,3.62098849202938,-18.9757950836142,-28.6935218603075,-4.70819392052328,64.7185365803234,-16.3285047303947,-19.3855857128122,2.47456757967317
6.59430463907787,-10.4763041293898,-31.3401545831343,3.61049803057012,-18.9498379755289,-28.2876318084403,-4.73597863037907,64.3013144870347,-16.386529644782,-19.0869013716501,2.15825514614926
6.86364390636444,-10.3304529461657,-31.1744832571477,3.59801809333353,-18.9143106496612,-27.8703744772553,-4.75849005129351,63.8601237852218,-16.4505385925366,-18.8219088225975,1.87632721519424
7.1189021167937,-10.1778407623531,-31.0087140023236,3.58425873519334,-18.8693028521869,-27.442508645286,-4.77553828413752,63.395115583075,-16.5206820531633,-18.5917121739432,1.63020003048452
7.35879605531137,-10.0186621775172,-30.8434349004908,3.56995243433376,-18.8149874954652,-27.0048240487466,-4.78696188657452,62.9065490983826,-16.5970968269563,-18.3968713610836,1.42073002986226
7.58220161283845,-9.85313227122929,-30.6792019606885,3.55583911644378,-18.7516107912139,-26.5581385069624,-4.79262477411356,62.3947834442,-16.6799081641254,-18.2374151062038,1.24822185658207
7.78816399780885,-9.68148365882415,-30.5165327001561,3.54265150175092,-18.6794816991938,-26.1032948025029,-4.79241333671967,61.8602678664778,-16.769231559625,-18.1128677124637,1.11245059193289
7.97590549567859,-9.5039633722476,-30.3559008900295,3.53110110263063,-18.59896104879,-25.6411572200022,-4.78623390365897,61.3035307776456,-16.8651740079773,-18.0222876955612,1.01269645023
8.14483070793576,-9.32082966155521,-30.1977325414798,3.52186515764388,-18.5104506784442,-25.1726076697521,-4.77401065206053,60.7251679685066,-16.9678345326108,-17.9643159502011,0.947789871120311
8.29452924186597,-9.13234882309274,-30.0424031672456,3.51557473480505,-18.4143829065496,-24.6985413561796,-4.75568401733898,60.1258304032627,-17.0773038553227,-17.9372310134206,0.916164781178223
8.42477585977674,-8.93879216334468,-29.8902363121158,3.51280417906124,-18.3112106015147,-24.2198619950237,-4.73120963698496,59.5062120086315,-17.1936631435363,-17.9390089764526,0.915917735532824
8.53552813089316,-8.74043320174137,-29.7415033044815,3.51406202492794,-18.2013980668332,-23.7374766281446,-4.70055785032453,58.8670378579547,-17.316981843821,-17.9673856738822,0.944870662892157
8.62692166023753,-8.53754520171847,-29.5964241419991,3.51978345188416,-18.0854129045285,-23.252290123471,-4.6637137808889,58.2090531231708,-17.4473146608076,-18.0199189283904,1.00063502009562
8.69926299626666,-8.33039909938607,-29.4551693905793,3.53032432915034,-17.9637189672499,-22.7651994768264,-4.62067803392739,57.5330131207925,-17.5846977657454,-18.0940488562577,1.08067531880314
8.75302034288822,-8.11926187627204,-29.3178629500098,3.54595687441171,-17.8367704549449,-22.2770880530149,-4.57146804185016,56.8396747159644,-17.7291443239303,-18.1871545495203,1.18237021271312
8.78881222202309,-7.90439539813343,-29.1845855232786,3.56686693267563,-17.7050071602766,-21.7888199156796,-4.51612008318384,56.1297892783427,-17.8806394242272,-18.2966058247096,1.30306961084529
8.80739425071496,-7.6860557153388,-29.0553786205569,3.59315286278334,-17.5688508245836,-21.301234397783,-4.45469198542403,55.4040973129989,-18.0391344878467,-18.4198091135666,1.44014658388664
8.80964421277208,-7.46449279173429,-28.9302489323692,3.62482599900075,-17.4287025374362,-20.8151410567946,-4.38726649776455,54.663324824418,-18.2045412396007,-18.5542469228479,1.59104313721918
8.79654562014379,-7.23995060039607,-28.8091729185231,3.66181263521007,-17.2849410966373,-20.3313151424944,-4.31395528623873,53.9081814130785,-18.3767253509689,-18.697510597721,1.75330923332943
8.76916997492021,-7.01266750012726,-28.6921014772148,3.70395746146775,-17.1379222378127,-19.8504936834122,-4.23490346361061,53.139360050099,-18.5554999068243,-18.8473263949919,1.92463475879538
8.72865796026772,-6.78287678951756,-28.5789645786218,3.75102836678687,-16.987978640518,-19.373372272513,-4.15029452147527,52.3575384239009,-18.7406188916693,-19.001575117021,2.10287443847221
8.6761998089187,-6.55080732778315,-28.4696757659669,3.80272250528287,-16.8354206208236,-18.9006026053703,-4.06035548331571,51.5633817046253,-18.9317709197001,-19.1583057810025,2.28606598414359
8.61301512184576,-6.31668411421513,-28.3641364428834,3.85867350202243,-16.6805374289618,-18.432790796954,-3.96536204689939,50.7575465331727,-19.1285734389495,-19.3157439987714,2.47244200413039
8.54033243772952,-6.08072873085782,-28.2622398791404,3.9184596485358,-16.523599081725,-17.9704964795648,-3.86564343779276,49.9406860191488,-19.3305676310585,-19.472295894735,2.66043637083939
8.45936888523801,-5.84315957444154,-28.1638748785819,3.98161290885426,-16.3648586665593,-17.5142326661189,-3.7615866602591,49.1134555254926,-19.537214220707,-19.6265484568049,2.84868582981605
8.37131028341242,-5.60419183006522,-28.068929064447,4.04762853219308,-16.204555054365,-17.0644663479146,-3.65363981410561,48.2765190194064,-19.747890413257,-19.7772671830973,3.03602763999821
8.27729208786532,-5.36403716640461,-27.9772917482796,4.11597505448025,-16.0429159540257,-16.6216197803363,-3.54231414968206,47.4305557719589,-19.9618881939031,-19.9233917834688,3.22149398275047
8.17838160812857,-5.12290315721555,-27.888856359271,4.18610446873858,-15.8801612393355,-16.1860723916276,-3.42818455720149,46.5762671900485,-20.1784142341276,-20.0640305641536,3.40430379370083
8.07556193941766,-4.88099245535205,-27.8035224215471,4.25746234978678,-15.7165064811003,-15.7581632290409,-3.31188822808677,45.7143835659273,-20.3965916478353,-20.1984539894558,3.58385257296932
7.96971805479994,-4.63850176296797,-27.7211970787908,4.32949772746681,-15.5521666220859,-15.3381938341304,-3.19412128408485,44.8456705339952,-20.6154638132827,-20.3260877749584,3.75970062158945
7.86162548582944,-4.39562065435502,-27.6417961789368,4.4016725135,-15.387359735912,-14.9264314171953,-3.07563324488448,43.9709350335835,-20.8340004284043,-20.446505719237,3.93156003944882
7.75194197662821,-4.15253031508473,-27.5652449446081,4.47347030246008,-15.222310809584,-14.5231121853616,-2.95721929635686,43.0910305902622,-21.0511059011076,-20.5594223358081,4.09928071292518
7.64120242549917,-3.90940226191691,-27.491478265314,4.54440439074498,-15.0572554826578,-14.1284446745762,-2.83971042507902,42.2068617474455,-21.2656300996945,-20.6646852223046,4.26283543189401
7.52981732949675,-3.66639710194382,-27.4204406547438,4.61402489037758,-14.8924436654254,-13.742612942548,-2.72396159145577,41.3193875047961,-21.4763814091464,-20.762267019319,4.42230421929208
7.41807482426247,-3.42366337788218,-27.3520859217733,4.68192485426422,-14.7281429462074,-13.365779492598,-2.61083821264307,40.4296236488093,-21.6821419604341,-20.852256780509,4.57785794112675
7.30614627049839,-3.18133653267454,-27.2863766081065,4.74774536945449,-14.5646416862462,-12.9980878141111,-2.50120130956655,39.5386438920772,-21.8816848216962,-20.9348505953356,4.72974128879308
7.19409518920013,-2.93953801471441,-27.2232832491976,4.81117960725118,-14.4022516905584,-12.6396644449443,-2.39589173526192,38.6475797689249,-22.0737928608009,-21.0103413566687,4.87825527268483
7.08188920151331,-2.69837453743478,-27.1627835179074,4.87197583935398,-14.2413103334817,-12.2906204871046,-2.29571394311392,37.7576192639855,-22.2572789094829,-21.0791076254972,5.02373941389794
6.96941449749183,-2.45793750334459,-27.1048613116617,4.92993943831547,-14.0821820099555,-11.9510525383467,-2.20141977536305,36.8700041753537,-22.4310067819257,-21.1416016015766,5.16655385502063
6.85649225159731,-2.2183026010913,-27.0495058428262,4.98493388254708,-13.9252587837836,-11.6210430346758,-2.11369275876944,35.9860262345,-22.5939126267113,-21.1983362624808,5.30706163353877
6.74289632934903,-1.97952958352104,-26.996710786806,5.03688078592266,-13.7709601183034,-11.300660027655,-2.03313338821444,35.1070220197848,-22.7450260242003,-21.2498717924364,5.44561138444338
6.62837159341726,-1.74166223513022,-26.9464735307693,5.08575897398316,-13.6197316031272,-10.9899564447138,-1.96024585844247,34.2343667073941,-22.8834901910137,-21.2968014898669,5.58252077228651
6.51265211905996,-1.50472853947911,-26.8987945472067,5.13160263528779,-13.4720426271924,-10.6889689022481,-1.89542666472018,33.369466702687,-23.008580630729,-21.3397374115002,5.71806099813502
6.3954786649551,-1.26874106095929,-26.8536768926781,5.17449858804569,-13.3283829875638,-10.3977161617439,-1.83895543481189,32.5137511889048,-23.1197215803226,-21.3792960715011,5.85244277535591
6.27661481023299,-1.03369755925741,-26.8111258071928,5.21458271817468,-13.189258463003,-10.1161973367007,-1.79098828479103,31.668662623164,-23.2164996418531,-21.4160845604047,5.98580420562037
6.1558612542796,-0.799581856854991,-26.7711483688239,5.25203566424019,-13.0551854199275,-9.84438996928429,-1.75155391843543,30.8356462052787,-23.298674053168,-21.4506874745455,6.11820099637056
6.0330678746276,-0.566364978486004,-26.7337531450108,5.28707784613612,-12.9266845529038,-9.58224809883024,-1.72055261752392,30.0161383456859,-23.3661831402539,-21.4836550451077,6.24959943149424
5.90814324252661,-0.33400657646233,-26.6989497765122,5.31996395663811,-12.804273888889,-9.32970044133669,-1.69775819918363,29.211554167183,-23.4191466094889,-21.5154928211322,6.37987243703359
5.78106139947544,-0.102456648537355,-26.6667484290393,5.35097705511146,-12.6884612029615,-9.08664879320032,-1.68282294899311,28.4232740938077,-23.4578634756519,-21.5466531889423,6.50879898018203
5.65186579673824,0.12834245178355,-26.6371590484416,5.38042241472039,-12.5797360039049,-8.85296676638193,-1.67528547352686,27.6526296095027,-23.4828055696889,-21.5775289073165,6.63606691288577
5.5206703911108,0.358453716377398,-26.610190358374,5.40862127251043,-12.4785612512146,-8.62849895678759,-1.67458134418343,26.900888307237,-23.4946067214292,-21.6084487242798,6.7612792340465
5.38765797305864,0.587942899478857,-26.5858485480759,5.43590461426712,-12.3853649606741,-8.4130606412312,-1.6800563164139,26.1692383929369,-23.4940478653017,-21.6396750393974,6.88396360905742
5.25307587821484,0.81687565383221,-26.5641356155695,5.4626070969807,-12.3005318447696,-8.20643808682005,-1.69098180719242,25.458772854561,-23.4820384671559,-21.6714034936876,7.00358485979434
5.11722930133962,1.04531438876622,-26.5450473584864,5.4890611777193,-12.2243951221685,-8.00838953558799,-1.70657221171542,24.7704735528165,-23.4595948064499,-21.7037643106192,7.11956002542979
4.9804724947822,1.27331485469847,-26.5285710372804,5.51559148611195,-12.1572286262489,-7.81864689531971,-1.72600355249089,24.1051955371218,-23.4278157613532,-21.7368251789948,7.23127549443178
4.84319819266435,1.50092246483155,-26.5146827676768,5.54250945512086,-12.0992393526779,-7.63691812868401,-1.74843289048925,23.463651939763,-23.3878568351498,-21.7705954554229,7.33810561880424
4.70582565820629,1.72816837706793,-26.5033447252073,5.57010821522619,-12.0505606073859,-7.46289029418865,-1.77301789390716,22.8463998495905,-23.3409032345783,-21.8050314562842,7.43943214651121
4.56878780455319,1.95506537725179,-26.4945022631588,5.59865776035598,-12.0112459383771,-7.29623315889723,-1.79893595536223,22.2538276058764,-23.2881428620845,-21.8400426010622,7.53466375962635
4.43251788744585,2.18160362757992,-26.4880810596755,5.62840040673703,-11.9812640481274,-7.13660327445131,-1.82540226959254,21.6861439756595,-23.2307401070284,-21.875498161514,7.62325499100173
4.29743630780868,2.40774637031131,-26.4839844242113,5.65954658408882,-11.9604948847393,-6.98364838412539,-1.8516863274949,21.1433696812869,-23.1698113094666,-21.9112343558244,7.70472380267706
4.16393808890684,2.63342570555593,-26.4820909085176,5.69227101783791,-11.9487271013919,-6.8370120113603,-1.87712634699469,20.6253317288369,-23.1064027192194,-21.9470614985697,7.77866713964218
4.03238159998522,2.85853859110489,-26.4822523798769,5.7267093775535,-11.9456570584184,-6.69633807190337,-1.90114124547709,20.1316609523179,-23.0414716778089,-21.9827708978986,7.84477383655455
3.90307907950937,3.08294323892505,-26.4842927204775,5.76295547819933,-11.9508895223811,-6.56127535241961,-1.92323985863717,19.6617931315654,-22.9758716120954,-22.0181412132304,7.90283436765593
3.77628946006596,3.30645610275982,-26.4880073134982,5.80105912621655,-11.96394019025,-6.43148170565313,-1.94302722087066,19.214973961206,-22.9103412548468,-22.0529440571914,7.95274708608376
3.6522139093403,3.52884966026352,-26.4931634615611,5.84102470245555,-11.9842401311477,-6.30662782289505,-1.96020783774376,18.7902680424391,-22.8454983124827,-22.0869487209254,7.99452077586161
3.53099437643703,3.74985118974875,-26.4995018552012,5.88281057000443,-12.011142191492,-6.18640045807737,-1.97458599904444,18.3865719406667,-22.7818375970234,-22.1199259878921,8.02827351327695
3.41271527378841,3.96914272667017,-26.5067391670077,5.92632938787649,-12.0439293518756,-6.07050499698286,-1.98606329974734,18.002631205732,-22.7197334375105,-22.1516510481893,8.0542279835937
3.29740824078098,4.18636235894825,-26.5145717923999,5.97144940003485,-12.0818249557951,-5.95866729389133,-1.99463365206132,17.637061095938,-22.659445990336,-22.1819055174113,8.07270351051941
3.18505973951973,4.40110698183324,-26.5226806948421,6.01799675013108,-12.1240046506696,-5.85063473904773,-2.00037617725056,17.2883705923155,-22.6011308804827,-22.2104785136561,8.08410512944675
3.07562104255527,4.61293657990427,-26.5307372472872,6.06575884288299,-12.1696097920603,-5.7461765718478,-2.00344645158068,16.9549891467579,-22.5448514354419,-22.2371666996829,8.0889100859466
2.96902000445314,4.82138003568777,-26.5384098982106,6.11448873377704,-12.2177619709842,-5.64508350936098,-2.00406663674611,16.6352954867791,-22.4905926415074,-22.2617732042185,8.08765218443952
2.86517387930693,5.02594238565122,-26.5453714348079,6.16391048452808,-12.2675782461176,-5.54716680804797,-2.00251504305192,16.3276477086337,-22.4382758854807,-22.284105410233,8.08090445536835
2.76400236564289,5.22611336329029,-26.5513065723132,6.21372537895766,-12.3181866109969,-5.45225690990363,-1.99911564770741,16.0304138332017,-22.3877735642395,-22.3039717134219,8.06926065506821
2.66544003338705,5.42137699442135,-26.5559195712253,6.26361885617078,-12.368741207801,-5.36020183648463,-1.99422801789603,15.7420019751499,-22.3389227564859,-22.321177476958,8.05331616122268
2.56944731296715,5.61122194845143,-26.5589415777656,6.31326798386067,-12.4184368136896,-5.27086548166073,-1.98823796965096,15.4608892830954,-22.2915373468731,-22.3355205174297,8.0336488734764
2.47601929725291,5.7951523058355,-26.5601373989233,6.36234926229586,-12.4665221683499,-5.18412591847939,-1.98154913861099,15.185648844825,-22.2454182487059,-22.3467865456107,8.01080077001283
2.38519171308115,5.97269837813811,-26.5593114577195,6.41054652109771,-12.5123117760135,-5.09987378725094,-1.97457547015856,14.9149738167639,-22.2003616484504,-22.3547450530448,7.98526080778175
2.29704355085866,6.14342721239516,-26.5563127178488,6.45755865146984,-12.555195894689,-5.01801078591317,-1.96773448610625,14.6476981315587,-22.1561654467777,-22.3591461707575,7.95744987762912
2.21169599147309,6.3069524231266,-26.5510384119799,6.50310690955368,-12.594648511717,-4.93844825309469,-1.96144108233054,14.3828132603374,-22.112634256593,-22.3597190132946,7.92770851119948
2.12930743784096,6.46294302005237,-26.5434364519537,6.54694153137264,-12.6302331901695,-4.86110582469165,-1.95610157278823,14.1194806512172,-22.0695834151631,-22.3561719578489,7.89628796320165
2.05006464796364,6.61113093477448,-26.5335064422364,6.5888474142443,-12.6616067500494,-4.78591015402793,-1.95210772148611,13.8570396250789,-22.0268424711653,-22.3481952110906,7.86334516076854
