Finger Velocity,Scap_X,Scap_Y,Scap_Z,Shoulder horiz abd-adduction,Shoulder flexion-extension,Shoulder internal-external rotation,elbow flexion-extension,forearm pronation-supination,wrist flexion-extension,wrist radial-ulnar deviation
0.810193762000253,-13.6823681342842,-37.7849084312573,1.52664095814403,-17.4164555200465,-30.6710881735516,-3.84713009579934,69.214423464753,-17.8792288839873,-24.4121177635427,11.4854219288398
0.921665035280746,-13.6725701268424,-37.7450839257987,1.5738611244664,-17.5179682209701,-30.6218619347408,-3.86025727129816,69.1772631490339,-17.6681782925205,-24.3536519156919,11.448178386621
1.08516325069567,-13.6621291834025,-37.6982698617656,1.61968745752271,-17.6180006137894,-30.5678424561331,-3.87939928559003,69.1402826285726,-17.4520259811495,-24.2873762464502,11.4080917819948
1.29874970492194,-13.6504955701767,-37.6440468031954,1.66375531647036,-17.7148734073108,-30.5083674606837,-3.90498698307945,69.1033111144707,-17.2326564199005,-24.2138661879425,11.3658424678256
1.55851143546421,-13.6370205257487,-37.5820526823851,1.70573394141316,-17.806807131122,-30.4427200045806,-3.93735497383561,69.0660904399962,-17.0120440981701,-24.1338940690372,11.3222303095835
1.86045831266655,-13.6209589406251,-37.5119909833222,1.74533343331344,-17.8919440019969,-30.3701343753471,-3.97672668536973,69.0282700667316,-16.7922188885958,-24.0484177687732,11.2781602584178
2.20109715513802,-13.601474915756,-37.4336378264725,1.78231059465945,-17.9683722753435,-30.2898035408067,-4.02320210965338,68.9894035683237,-16.5752302059335,-23.9585623071291,11.2346227839188
2.57739627568896,-13.5776502693264,-37.3468477322097,1.81647347677599,-18.0341527419723,-30.200887889818,-4.07674896280796,68.9489466298362,-16.3631108931706,-23.8655951046256,11.1926699298501
2.98659756383715,-13.5484959428757,-37.2515578688976,1.84768454531252,-18.0873469566403,-30.1025249577133,-4.13719788096691,68.9062565627789,-16.1578417425981,-23.7708959611938,11.1533880839575
3.42604277981851,-13.5129661292101,-37.147790624789,1.87586244724779,-18.1260467048353,-29.993839817419,-4.20424213810015,68.860593307074,-15.9613175116443,-23.6759229954595,11.1178687685939
3.89305049312586,-13.4699748141375,-37.0356543853174,1.90098243245805,-18.1484041281215,-29.8739558369658,-4.27744218653351,68.8111218722476,-15.7753152312686,-23.5821758512614,11.087178828898
4.38483995169292,-13.418414301097,-36.9153424538528,1.92307554132723,-18.1526618402793,-29.7420055452406,-4.35623508949334,68.7569161627341,-15.6014655352231,-23.4911574471693,11.0623313172262
4.8984905130165,-13.3571751823024,-36.7871301239003,1.94222670905793,-18.137182286429,-29.5971414010445,-4.43994864820904,68.6969641387824,-15.441227661631,-23.4043354545071,11.0442581780595
5.43092650878539,-13.2851671421058,-36.6513699881104,1.95857195475133,-18.1004755400116,-29.4385463191012,-4.52781974660365,68.630174285871,-15.2958686870315,-23.3231045763057,11.0337855824696
5.97892008202428,-13.2013399350854,-36.5084856474751,1.97229482399433,-18.0412247142077,-29.2654438640268,-4.61901617467952,68.5553833984647,-15.1664474393495,-23.2487505973682,11.0316125060527
6.53910676012377,-13.1047038741742,-36.3589640571842,1.98362224520636,-17.9583081978004,-29.0771080728841,-4.71266097557244,68.4713657194518,-15.0538033994186,-23.1824171083539,11.0382929341488
7.10801007180705,-12.9943491892954,-36.2033468083939,1.99281994548723,-17.8508180135969,-28.8728729045996,-4.80785820867932,68.3768435011013,-14.9585507490119,-23.1250757717676,11.0542219295082
7.68207252364664,-12.8694636700522,-36.0422206907588,2.00018755066271,-17.7180737312535,-28.6521413384398,-4.90371893929502,68.2704990530319,-14.8810775706423,-23.0775009567703,11.0796256964155
8.25769089747035,-12.7293480840353,-35.8762079013095,2.00605346872182,-17.5596315287063,-28.4143941522833,-4.99938625392286,68.1509883084451,-14.8215500654126,-23.040249471544,11.1145556914345
8.83125424749732,-12.5734289611711,-35.7059562567557,2.0107696318872,-17.3752881699993,-28.1591984017455,-5.09405815557101,68.0169558685738,-14.7799215391234,-23.0136459443044,11.1588867416086
9.39918325478106,-12.4012684470534,-35.5321297312737,2.01470615603451,-17.1650798405334,-27.8862155906097,-5.18700730906087,67.8670513787224,-14.7559458116216,-22.99777417096,11.2123190340356
9.95796979340794,-12.2125710451511,-35.3553995883455,2.0182459700298,-16.929275948491,-27.5952094724576,-5.27759677759452,67.6999469555833,-14.7491946199676,-22.9924745018643,11.2743837455844
10.5042157131948,-12.0071871804201,-35.1764363117795,2.02177947099123,-16.6683681604421,-27.286053360179,-5.36529111183882,67.5143552423788,-14.759078505458,-22.9973471049378,11.3444519915492
11.0346699688397,-11.7851136185287,-34.995902474584,2.02569927007686,-16.3830550859061,-26.9587367565282,-5.44966240924446,67.3090475422213,-14.7848705996594,-23.0117607145719,11.4217466817019
11.5462633383685,-11.5464908614585,-34.8144466211739,2.03039510220933,-16.0742231562842,-26.6133710670334,-5.53039123691214,67.0828713969427,-14.8257326586899,-23.0348662567356,11.5053567833279
12.0361400815337,-11.2915977098436,-34.632698183605,2.03624897950147,-15.7429243556314,-26.250194124324,-5.60726258699143,66.8347669537127,-14.8807426386389,-23.0656145519163,11.59425341723
12.501685995278,-11.0208432365062,-34.4512634078134,2.04363066914053,-15.3903515497886,-25.869573244984,-5.68015728928004,66.5637814982016,-14.9489230656297,-23.1027771536305,11.6873071585353
12.9405524299548,-10.7347564586642,-34.2707222290891,2.05289356730102,-15.0178122197255,-25.4720065590398,-5.74903952192113,66.2690816236441,-15.0292694447668,-23.1449692802166,11.783305873872
13.3506759367312,-10.433974032094,-34.0916260047301,2.06437101952059,-14.6267014302036,-25.0581223975848,-5.81394122476602,65.949962630617,-15.1207779720456,-23.1906737607835,11.8809724197673
13.7302933226283,-10.1192263198338,-33.9144959857588,2.07837311047612,-14.2184748568849,-24.6286765910195,-5.874944327941,65.6058548885068,-15.2224718461598,-23.2382649875382,11.9789815964158
14.0779519936091,-9.79132220998152,-33.7398223898434,2.09518392140477,-13.7946226573564,-24.1845476113093,-5.93216176457691,65.2363270235165,-15.3334255169292,-23.2860320642828,12.0759759098538
14.3925155663448,-9.4511330721752,-33.5680639251512,2.11505923697856,-13.3566449072865,-23.7267295781498,-5.98571824753985,64.8410859308884,-15.4527862631445,-23.3322006276615,12.1705799115185
14.6731648240838,-9.09957625174342,-33.39964761139,2.13822467356061,-12.906029233565,-23.2563232334753,-6.03573175766662,64.4199737437126,-15.5797925692064,-23.3749531376216,12.2614131147942
14.9193941797541,-8.73759850449072,-33.2349687518634,2.1648741919592,-12.4442311634682,-22.7745250653812,-6.082296612713,63.9729620230208,-15.7137888592682,-23.4124477470761,12.3471017046219
15.131003888591,-8.36615977190713,-33.0743909290876,2.19516894731684,-11.9726575772913,-22.2826148269739,-6.12546886198825,63.5001435556251,-15.8542362415508,-23.4428361327554,12.4262894312905
15.3080883219821,-7.98621768397004,-32.9182459235592,2.22923641905899,-11.4926535096078,-21.7819417449402,-6.16525459175511,63.0017222515331,-16.0007190114371,-23.4642808477165,12.4976481791124
15.4510206729418,-7.59871315346285,-32.7668334864097,2.26716975899641,-11.0054924005309,-21.273909745428,-6.20160154685835,62.4780017182086,-16.1529467627479,-23.474972795285,12.5598887015733
15.5604345110949,-7.20455739193695,-32.6204209276099,2.30902729812029,-10.5123697620555,-20.7599620425423,-6.23439428841346,61.9293731492092,-16.3107520703626,-23.4731493275115,12.6117719254186
15.6372026410247,-6.804620632964,-32.4792425084636,2.35483216226115,-10.0144001040097,-20.2415654406848,-6.26345292713297,61.3563031921889,-16.4740838399441,-23.457113290261,12.6521210827398
15.6824137424211,-6.39972279200306,-32.343498649621,2.40457196089598,-9.51261686396809,-19.7201946983853,-6.28853530709067,60.7593224490573,-16.6429965673686,-23.4252531326247,12.67983477048
15.6973472840613,-5.99062622309882,-32.2133549860695,2.45819852889821,-9.00797500563788,-19.197317288178,-6.30934237294452,60.1390152055392,-16.8176359004503,-23.3760640112984,12.6939008854793
15.6834472069391,-5.57803065261099,-32.0889413202895,2.51562771775933,-8.50135589004351,-18.6743788638565,-6.32552634200723,59.4960108893536,-16.9982210375077,-23.3081696690022,12.6934112541582
15.6422948657159,-5.16257028551379,-31.9703505423063,2.5767392518908,-7.99357398351101,-18.1527897141095,-6.33670122888619,58.8309776210831,-17.1850246182659,-23.2203447527461,12.6775766799682
15.5755817031316,-4.74481299958003,-31.8576375970479,2.64137668541939,-7.48538494336328,-17.6339124429777,-6.34245523807036,58.1446180585711,-17.3783508465723,-23.1115371598242,12.6457420770577
15.485082110197,-4.32526147487072,-31.7508185829456,2.70934751170858,-6.97749461132549,-17.1190510755737,-6.34236454475173,57.4376675576844,-17.5785126195761,-22.9808899536787,12.5974013440594
15.3726268969921,-3.90435605401812,-31.6498700619362,2.78042348945806,-6.47056844500664,-16.6094417425848,-6.33600801684609,56.7108944969882,-17.7858084247228,-22.8277623712562,12.532211642883
15.2400777657859,-3.48247909202088,-31.5547286533249,2.85434125573027,-5.96524093406433,-16.1062450480786,-6.32298247764841,55.9651024589681,-18.0004997167862,-22.6517494304122,12.4500067605891
15.0893031408745,-3.05996052963598,-31.4652909760933,2.93080329833339,-5.46212458252937,-15.6105401724632,-6.30291815226022,55.2011338387114,-18.2227894191524,-22.4526996119506,12.3508092238499
14.9221556688027,-2.63708440874021,-31.3814139979553,3.00947935838503,-4.96181808921182,-15.1233207092769,-6.2754939696068,54.4198743689442,-18.4528021182206,-22.2307300117792,12.2348407886201
14.7404516590665,-2.21409603876217,-31.3029158443331,3.09000832963454,-4.4649134197421,-14.645492184003,-6.24045240221774,53.6222580097823,-18.6905664404786,-21.9862382374401,12.1025308429307
14.5459526894453,-1.79120951932063,-31.2295771155001,3.17200071473074,-3.97200153420414,-14.1778711560282,-6.19761352111587,52.8092716506209,-18.9360000191015,-21.7199101989056,11.9545221605609
14.3403495520967,-1.36861532657933,-31.1611427547275,3.25504168922355,-3.4836766104606,-13.7211857609928,-6.14688792862087,51.9819591039161,-19.1888973731304,-21.4327228746407,11.7916733677402
14.1252486667335,-0.946487682514372,-31.0973245025844,3.33869481065052,-3.0005386791412,-13.2760775121245,-6.08828821370946,51.14142392581,-19.4489209404329,-21.1259411746905,11.615057480311
13.9021610358995,-0.524991450149589,-31.0378039592539,3.42250639245436,-2.52319465513463,-12.8431041501905,-6.02193855828991,50.2888306671155,-19.7155954292794,-20.8011082028898,11.4259559671714
13.6724937649992,-0.104288333990221,-30.9822362550808,3.50601054047539,-2.05225780875807,-12.4227433160745,-5.94808211333727,49.4254042364714,-19.988305587559,-20.4600285309664,11.225847994522
13.4375441169542,0.315457789649495,-30.9302543000129,3.58873482209522,-1.58834576778586,-12.0153968174966,-5.86708576736045,48.5524271460534,-20.2662974370676,-20.1047444941475,11.0163947695783
13.1984960191016,0.734076537297539,-30.88147354879,3.67020650371034,-1.13207717962282,-11.6213952690608,-5.77944195221791,47.67123450779,-20.5486829816058,-19.7375059497539,10.7994191923361
12.9564188894334,1.15138775191595,-30.8354971848668,3.7499592531547,-0.684067190416698,-11.2410028996145,-5.68576717656707,46.7832067486578,-20.834448366855,-19.3607343683588,10.5768813131977
12.7122686020412,1.56719933276386,-30.7919215945392,3.82754016668602,-0.244921917485509,-10.874422340206,-5.58679704797026,45.8897601103692,-21.1224654394129,-18.9769825137223,10.3508503588925
12.4668903694115,1.98130615028055,-30.7503419750565,3.90251695322662,0.184767889233367,-10.5217992266163,-5.48337764466716,44.9923350886441,-21.4115066107536,-18.5888912612156,10.1234742932874
12.2210232838447,2.39349000458328,-30.7103578995878,3.97448509504545,0.604433777016038,-10.1832264701647,-5.37645322918384,44.0923830513273,-21.7002628687699,-18.1991452497998,9.89694798420634
11.9753062334947,2.80352056118376,-30.6715786526616,4.04307480048015,1.01353686757331,-9.85874807008935,-5.26705045502445,43.1913513547876,-21.9873646902722,-17.8104290316496,9.67348103285579
11.7302848918288,3.21115717363372,-30.633628156452,4.10795756504348,1.41157522154593,-9.54836236405739,-5.15625939783451,42.2906673548059,-22.271405492175,-17.4253851951794,9.45526620009142
11.4864194737237,3.61615147892913,-30.5961493322956,4.1688521612755,1.79809102513445,-9.252024643524,-5.04521193482423,41.3917217778668,-22.5509671195431,-17.046575647624,9.24444916812449
11.2440929573616,4.01825063071139,-30.5588077804072,4.22552988860835,2.1726773385403,-8.96964909841545,-4.93505818629347,40.4958519718198,-22.8246467143235,-16.6764469172432,9.04310015218168
11.0036194882852,4.41720102126194,-30.5212947078325,4.27781893349897,2.53498416009353,-8.70111009978901,-4.82694189805428,39.6043255805197,-23.0910841570977,-16.3173000267568,8.85318766890913
10.7652527093771,4.81275233537834,-30.4833290823756,4.32560771160755,2.88472358501737,-8.44624287724842,-4.72197575908621,38.7183251810929,-23.3489891472504,-15.9712652362301,8.67655461412434
10.5291937964177,5.20466177301659,-30.4446590322526,4.36884708101048,3.22167387378846,-8.2048436952733,-4.62121769896131,37.8389343878258,-23.5971669051901,-15.6402817725722,8.51489672522132
10.2955990209263,5.59269827046084,-30.4050625442722,4.40755132888036,3.54568228870237,-7.97666967329783,-4.52564919108167,36.967125868831,-23.8345414604994,-15.326082550471,8.3697435057955
10.0645867074972,5.97664654454771,-30.3643475359886,4.44179785269364,3.85666660332961,-7.7614384242896,-4.43615650678972,36.1037516467332,-24.0601755423777,-15.0301838270292,8.24244174769645
9.83624349891452,6.35631078660244,-30.3223513893771,4.4717254896594,4.15461523395998,-7.55882770474166,-4.35351573094617,35.2495359700375,-24.2732862151584,-14.7538796923186,8.13414185325582
9.61062988614122,6.73151784494488,-30.2789400366681,4.49753149457768,4.4395859843763,-7.36847527603233,-4.27838216759842,34.4050709555205,-24.4732555948485,-14.4982412524674,8.04578719290084
9.38778499932106,7.1021197554958,-30.2340066854182,4.51946721868454,4.71170343737885,-7.18997917395543,-4.21128453981887,33.5708151213777,-24.659636226938,-14.2641202853311,7.9781067053345
9.16773068817591,7.46799550649766,-30.1874702632165,4.53783259306341,4.97115506818271,-7.0228985688809,-4.15262413212807,32.747094861805,-24.8321509796678,-14.0521570205093,7.93161085375759
8.95047494428258,7.82905195497036,-30.1392736587885,4.55296956791719,5.21818619199332,-6.86675536887679,-4.10267875666496,31.9341088577222,-24.9906875884495,-13.8627915109708,7.90659090158345
8.73601473305343,8.18522384889297,-30.0893818403384,4.56525470140606,5.45309388837717,-6.72103666922596,-4.06161116642446,31.1319353708303,-25.1352882559282,-13.6962778499663,7.90312128906005
8.52433830998968,8.53647294694488,-30.0377799399598,4.57509112214534,5.67622007241036,-6.58519809025235,-4.02948130874954,30.3405423210108,-25.2661349479674,-13.5527002968929,7.9210647153184
8.31542709480607,8.88278626175615,-29.98447139484,4.58290010106888,5.88794391235824,-6.45866798453167,-4.0062616266786,29.559799993212,-25.3835312098417,-13.4319902626957,7.9600793989124
8.10925716983098,9.22417348053487,-29.9294762248624,4.58911246242054,6.08867382439657,-6.34085244594214,-3.99185448863903,28.7894961562737,-25.4878814485151,-13.3339431013704,8.01962793551103
7.90580045760484,9.5606636409608,-29.872829503074,4.59416004933826,6.27883929708161,-6.23114102047168,-3.98611076474472,28.0293533035933,-25.5796686846263,-13.2582337612258,8.0989872058567
7.70502561901438,9.89230116544219,-29.8145800490771,4.59846744639539,6.45888280077634,-6.12891299648271,-3.98884856917756,27.2790476485763,-25.659431773443,-13.2044305478398,8.1972588980143
7.50689869982236,10.2191413875029,-29.7547893589853,4.60244415434964,6.62925201637284,-6.03354412842687,-3.99987124662344,26.538229432163,-25.7277430332093,-13.1720065129466,8.31338036617474
7.31138354210884,10.5412457393914,-29.6935307864051,4.60647741033956,6.79039258136846,-5.94441361691676,-4.01898378610743,25.8065440298996,-25.7851871172098,-13.1603482810775,8.44613572191872
7.11844196958146,10.8586768018793,-29.6308889987907,4.61092584301341,6.94274151314938,-5.86091113813545,-4.04600698269666,25.0836532856405,-25.8323418426141,-13.1687624273013,8.59416721820058
6.92803375305946,11.1714934339419,-29.5669597348609,4.61611413671839,7.08672143706505,-5.78244370241074,-4.08078881882379,24.3692564528698,-25.8697615592646,-13.1964797859195,8.7559871211847
6.74011636518505,11.4797461935954,-29.5018498703121,4.6223288461739,7.22273571880852,-5.70844213348766,-4.1232126873884,23.6631100989006,-25.8979635121353,-13.2426582565747,8.92999034941695
6.55464454139606,11.7834732319207,-29.4356777639797,4.62981545515221,7.35116457198316,-5.63836699133817,-4.17320222101594,22.9650463264431,-25.9174175259435,-13.3063847594669,9.1144681841619
6.37156967659779,12.0826967977947,-29.368573817818,4.63877671588969,7.47236218177897,-5.57171379970219,-4.23072262664964,22.2749886927246,-25.9285392206087,-13.3866770011534,9.3076233347922
6.19083910243827,12.3774204415029,-29.3006811540974,4.64937224621655,7.58665485661306,-5.50801747507559,-4.29577855486487,21.5929652585092,-25.9316868499118,-13.4824856873519,9.50758660267894
6.01239530684614,12.6676269599149,-29.2321562975583,4.66171930451408,7.69434019157733,-5.44685588442551,-4.36840865866753,20.9191182784011,-25.9271617390231,-13.5926977667628,9.71243533060114
5.83617517351941,12.9532770885628,-29.163169747309,4.67589461575802,7.79568719825969,-5.38785248788109,-4.44867711492276,20.2537101492333,-25.9152121776774,-13.7161411937343,9.92021374211173
5.66210933230922,13.2343089167822,-29.0939063290012,4.6919370901709,7.89093732438405,-5.33067805287879,-4.53666249210207,19.5971253623551,-25.896040505606,-13.8515915610959,10.1289551672986
5.49012172004434,13.5106379789905,-29.0245652303693,4.70985125755353,7.98030625652186,-5.27505145628142,-4.63244445057314,18.949868353457,-25.8698130069485,-13.9977808080952,10.3367060343078
5.32012945377623,13.7821579567148,-28.9553596432957,4.7296112293185,8.0639863733679,-5.220739616388,-4.73608885386599,18.3125573028744,-25.8366721139557,-14.1534080748959,10.5415513906908
5.1520431137047,14.0487419124091,-28.8865159635021,4.75116499398898,8.14214969868688,-5.16755661450461,-4.84763194735279,17.6859140992437,-25.7967503148396,-14.3171526479211,10.7416415977671
4.98576752083217,14.3102439682477,-28.8182725318973,4.77443885214014,8.21495119527795,-5.11536207693361,-4.967064322026,17.0707508274399,-25.7501850756862,-14.4876888018875,10.9352197050273
4.82120307505423,14.5665013410185,-28.7508779340541,4.7993418052424,8.28253224627584,-5.06405889693244,-5.09431542231095,16.4679532670663,-25.6971340302996,-14.663702195919,11.120648871515
4.65824769398062,14.8173366474714,-28.6845889006119,4.82576973025533,8.34502418587233,-5.0135903866169,-5.22923936964445,15.8784619837885,-25.6377896722938,-14.8439073450567,11.2964390873465
4.4967993629568,15.0625604018868,-28.6196678682434,4.85360919837577,8.40255176264246,-4.9639369627024,-5.37160284848588,15.3032516610391,-25.5723928042315,-15.0270655864969,11.4612723860847
4.33675927464272,15.3019736366746,-28.5563802677544,4.8827408304246,8.45523643945356,-4.91511248533041,-5.5210757361136,14.743309356976,-25.5012440541984,-15.2120028990224,11.6140257321668
4.17803550448515,15.5353705842775,-28.494991605124,4.91304211810544,8.50319945069106,-4.86716038089325,-5.67722505454106,14.1996123856534,-25.4247128532662,-15.3976269113791,11.7537908068609
4.02054713890787,15.7625413633228,-28.4357643964062,4.94438967433231,8.54656454966343,-4.82014968236792,-5.83951268364088,13.6731065144077,-25.3432433769272,-15.5829424512353,11.8798899934493
