Finger Velocity,Scap_X,Scap_Y,Scap_Z,Shoulder horiz abd-adduction,Shoulder flexion-extension,Shoulder internal-external rotation,elbow flexion-extension,forearm pronation-supination,wrist flexion-extension,wrist radial-ulnar deviation
0.445747084745206,-11.4423697273967,-33.8468620350546,2.33780232981131,-16.9755785926654,-33.5536597628003,-3.10836650186024,67.2648603003652,-17.016101234053,-29.2115380200859,13.6984751576379
0.58537920995151,-11.4137505657394,-33.8408311954154,2.38990141536287,-17.0383824596803,-33.5283407846431,-3.16803320587459,67.2641439798426,-16.9670875819699,-29.0609707183181,13.5388208353297
0.743366425619795,-11.3813925527941,-33.8307075360846,2.44556421123329,-17.1076973459,-33.4931297815527,-3.23401756288117,67.258918231283,-16.9158532084111,-28.8899800210284,13.3576627544891
0.918284731344403,-11.3450725302876,-33.8158964478384,2.50455971094356,-17.1833619832535,-33.4468074635867,-3.30617857114052,67.2481516494535,-16.8629735802777,-28.6987983712045,13.1552459811763
1.10910666470424,-11.3045672437728,-33.795809836686,2.56661404204412,-17.2651191958877,-33.3881569989546,-3.38427751969016,67.23074640366,-16.809081024254,-28.4879919934641,12.9321639207246
1.31490735710575,-11.2596528330455,-33.7698766211377,2.63141535472246,-17.3526161753598,-33.3159815505241,-3.46797734540709,67.205547782375,-16.7548538073048,-28.2584619265805,12.6893587974101
1.53473709520999,-11.2101042597641,-33.7375535935856,2.69861958860814,-17.4454069815352,-33.2291224774061,-3.55684431322756,67.171355245756,-16.7010037267024,-28.0114352895219,12.4281118127705
1.76756435630851,-11.1556947816116,-33.6983364163703,2.76785692611032,-17.5429572562273,-33.1264778489517,-3.65035210436668,67.1269348162891,-16.6482626573255,-27.748446604568,12.1500228240878
2.01225166350085,-11.0961956055718,-33.6517704920277,2.83873870972294,-17.6446510363943,-33.007020896898,-3.74788829095378,67.0710325846348,-16.5973685977083,-27.4713094751916,11.8569799010192
2.26754835846149,-11.0313758674987,-33.5974614158338,2.91086459096734,-17.7497994648515,-32.869818016211,-3.84876307162051,67.0023890517158,-16.5490518102497,-27.1820794161568,11.5511196669387
2.53209300762624,-10.9610030874615,-33.5350846925606,2.98382969274509,-17.8576511317023,-32.7140459139856,-3.95222005503246,66.9197539753831,-16.504021645873,-26.8830091187046,11.2347798675284
2.80442180804136,-10.8848442386222,-33.4643943851808,3.05723159806315,-17.9674037410309,-32.5390075017449,-4.05744880793107,66.8219013513643,-16.4629545729487,-26.5764978598988,10.9104460769172
3.08298100198765,-10.8026675411946,-33.3852303680161,3.13067701327544,-18.0782167762227,-32.3441461369253,-4.16359882061519,66.7076441465783,-16.4264838064769,-26.2650370855299,10.5806947931951
3.36614208848565,-10.7142450525533,-33.2975238856293,3.20378798252155,-18.1892248216333,-32.1290578498628,-4.26979447719889,66.5758484278213,-16.3951907843002,-25.9511543677163,10.2481353415147
3.65221900644752,-10.6193560712959,-33.2013011733175,3.27620754973054,-18.2995511811495,-31.8935012425912,-4.37515055385053,66.4254465904392,-16.3695985958836,-25.6373579309956,9.91535296506234
3.93948666508271,-10.5177913106139,-33.0966849734905,3.34760477806367,-18.4083214165224,-31.6374048095469,-4.47878771906985,66.2554494792877,-16.3501673596673,-25.326083748181,9.58485524319012
4.22620030765435,-10.4093577307405,-32.9838938786856,3.41767904495289,-18.514676417735,-31.360871502246,-4.57984749008112,66.0649572908286,-16.3372914720801,-25.0196468652233,9.2590235764224
4.51061526105739,-10.2938838593138,-32.8632395356781,3.48616353380198,-18.617784624841,-31.0641804377223,-4.67750611795413,65.8531692333798,-16.3312986046631,-24.7201982005044,8.94007100466074
4.79100666918831,-10.1712253804085,-32.7351218415548,3.5528278444145,-18.7168530550275,-30.747785731504,-4.77098693335047,65.6193919890874,-16.332450291654,-24.4296876643935,8.63000716757012
5.06568884465897,-10.0412707443352,-32.6000223382337,3.61747965062805,-18.8111368526028,-30.412312514018,-4.85957077833649,65.3630470570454,-16.3409439194182,-24.1498341156158,8.3306108315859
5.33303390723633,-9.90394654432579,-32.4584960598112,3.6799653524521,-18.8999471658741,-30.0585502571228,-4.94260426608016,65.083677057133,-16.356915896127,-23.8821024276804,8.04341011314228
5.59148941150732,-9.75922242154393,-32.311162109141,3.74016970499442,-18.9826572494503,-29.687443590516,-5.01950574053328,64.7809510402165,-16.3804457444763,-23.6276877630965,7.76967031019535
5.83959470197127,-9.60711529122059,-32.1586932443334,3.79801445760833,-19.058706779463,-29.3000808251895,-5.08976894598655,64.4546687927889,-16.411560829684,-23.387507007332,7.51038908248261
6.07599577133553,-9.4476927237625,-32.001804751352,3.85345609841048,-19.1276044429507,-28.8976804251074,-5.15296455060259,64.1047640596723,-16.4502414228454,-23.1621971672712,7.26629856472066
6.29945843692168,-9.28107536075736,-31.841242871584,3.90648285835733,-19.1889289161793,-28.4815756846583,-5.20873978161574,63.7313065546932,-16.4964258135043,-22.9521203844635,7.03787384606837
6.50887969012387,-9.10743829363889,-31.6777730455902,3.95711116848284,-19.2423283793061,-28.0531978863275,-5.25681650759406,63.3345025989004,-16.5500152192787,-22.7573750606893,6.82534711085886
6.70329711395692,-8.92701137876078,-31.5121682259027,4.00538177287338,-19.2875187296989,-27.6140582362968,-5.29698813833214,62.9146942231561,-16.6108782826732,-22.5778124486946,6.62872661784251
6.88189630298041,-8.74007850294496,-31.3451975011205,4.05135568023743,-19.3242806591911,-27.1657289049012,-5.32911570817511,62.4723565940504,-16.6788549906848,-22.413057930222,6.4478196026204
7.04401625738791,-8.54697584595505,-31.1776152589769,4.09511010022614,-19.352455759129,-26.709823527436,-5.35312347321757,62.008093662794,-16.7537599045104,-22.2625360991064,6.28225812730643
7.18915275798551,-8.34808921044464,-31.0101510964396,4.13673447115204,-19.3719418183652,-26.2479775401671,-5.36899429911992,61.5226319879479,-16.8353846450473,-22.1254987027191,6.13152688219656
7.3169597604513,-8.14385050623722,-30.8435006594188,4.17632665397551,-19.3826874864655,-25.7818287307951,-5.37676505504138,61.0168127362756,-16.9234996372949,-22.0010544804604,5.99499197367961
7.42724887512527,-7.93473348513687,-30.6783175630445,4.21398934765882,-19.3846864859046,-25.3129983705258,-5.37652216811041,60.4915819170064,-17.0178551639177,-21.8881999808588,5.87192980936839
7.51998702226457,-7.72124882638951,-30.515206507214,4.24982677138756,-19.3779715698952,-24.8430732671549,-5.36839743759421,59.9479789540232,-17.1181818109247,-21.7858505320378,5.76155529719223
7.59529237203774,-7.50393867394811,-30.3547176647316,4.28394165415216,-19.3626084330209,-24.3735890365593,-5.35256416195066,59.3871237500961,-17.224190407031,-21.6928706501369,5.66304867818872
7.65342869353726,-7.28337072780111,-30.1973423846433,4.3164325666845,-19.3386897840145,-23.9060148361534,-5.32923359509878,58.8102024459365,-17.3355715664462,-21.6081032600795,5.57558039219241
7.69479824794755,-7.06013199431789,-30.0435102229278,4.34739162341283,-19.30632977719,-23.4417397426328,-5.29865171701001,58.2184521188319,-17.4519949496712,-21.5303971703301,5.49833344075144
7.719933368053,-6.83482230345315,-29.8935872852608,4.37690257468416,-19.2656589697569,-22.9820608931562,-5.26109627504296,57.6131446944433,-17.5731083647273,-21.4586323146316,5.43052278676299
7.72948686996287,-6.60804770076646,-29.7478758393308,4.40503930410564,-19.2168199331985,-22.528173448865,-5.21687402843281,56.9955703583556,-17.6985368414786,-21.3917423659998,5.37141142973135
7.72422144380486,-6.38041381807562,-29.6066151254066,4.43186474325872,-19.1599636080665,-22.0811623863075,-5.16631811584507,56.3670207538997,-17.8278818176231,-21.32873443036,5.32032292124459
7.70499816877824,-6.1525193187344,-29.4699832647186,4.45743021523854,-19.0952464598425,-21.6419960783209,-5.1097854698268,55.7287722457631,-17.960720570559,-21.2687056161034,5.27665023391302
7.67276429494956,-5.92494950251998,-29.3381001405052,4.4817752169674,-19.0228284707391,-21.2115215911564,-5.04765422095443,55.0820695219339,-18.0966060128961,-21.2108563388078,5.23986105735154
7.6285404300791,-5.69827014093158,-29.211031112103,4.50492764537828,-18.9428719860182,-20.790461598508,-4.98032106263104,54.4281098045143,-18.235066941179,-21.1545002658393,5.20949975024162
7.5734072650963,-5.47302159797287,-29.0887914198627,4.52690446293511,-18.8555414183532,-20.3794127979533,-4.90819857687076,53.7680279439016,-18.3756087892024,-21.0990708580482,5.1851863142354
7.50849196704277,-5.24971327783948,-28.9713511436415,4.54771278372781,-18.7610037943756,-19.9788457155123,-4.83171254316859,53.1028826785557,-18.5177148958962,-21.0441245452776,5.16661285777871
7.43495436375345,-5.02881843214305,-28.8586405836513,4.56735134454794,-18.6594301015946,-19.5891058009222,-4.75129926122884,52.4336443509707,-18.6608482648295,-20.9893406741503,5.15353806456755
7.3539730405739,-4.81076935514057,-28.7505559353909,4.58581230958908,-18.5509973647658,-19.2104157452807,-4.66740291713002,51.7611843767173,-18.8044537752869,-20.9345184641092,5.14578016145032
7.26673146630188,-4.59595299380146,-28.6469651302119,4.60308334608686,-18.4358913556914,-18.8428789853751,-4.58047302057491,51.0862667639597,-18.9479607981514,-20.8795712779303,5.1432088093935
7.17440426356641,-4.38470699900984,-28.5477137133681,4.61914990139424,-18.3143098244723,-18.4864843863296,-4.49096194227164,50.4095419698766,-19.0907861599773,-20.8245185553465,5.14573625294374
7.07814373828779,-4.17731624496063,-28.4526306367521,4.63399760647064,-18.1864661319677,-18.1411121102688,-4.39932257878842,49.73154335165,-19.232337378281,-20.769475785842,5.15330799110093
6.97906678397289,-3.97400984639693,-28.3615338557863,4.64761472407178,-18.0525931568631,-17.8065406820828,-4.30600615961871,49.0526864206,-19.3720160649284,-20.7146429148587,5.16589319006566
6.87824227964058,-3.77495870714458,-28.274235637205,4.65999455323941,-17.9129473418102,-17.4824552547595,-4.21146018976231,48.3732710408528,-19.5092213717399,-20.6602915849423,5.183475041299
6.77667910531678,-3.58027363712617,-28.1905475027786,4.6711376976356,-17.7678127310493,-17.1684570566236,-4.11612649947591,47.6934866318287,-19.6433533401906,-20.606751614391,5.20604126724444
6.67531490628592,-3.39000407823868,-28.1102847493489,4.68105410439476,-17.6175048389622,-16.8640739724261,-4.0204393554052,47.0134203394362,-19.7738160211913,-20.5543971180774,5.23357498781594
6.57500574634769,-3.20413748293225,-28.0332704952979,4.68976478166203,-17.4623741789042,-16.5687721724746,-3.92482357377413,46.3330680388391,-19.9000202542516,-20.5036326764653,5.26604618078922
6.4765168004937,-3.02259939377394,-27.9593392081353,4.69730310759952,-17.3028092782844,-16.2819686615474,-3.82969256850114,45.6523479294694,-20.0213860341931,-20.4548799520449,5.30340399072333
6.38051424745551,-2.84525427704252,-27.8883396706131,4.70371565371326,-17.13923901066,-16.0030445734442,-3.73544626981444,44.9711163872793,-20.1373444408938,-20.40856513052,5.34557015124922
6.28755853068429,-2.6719071659572,-27.8201373477582,4.70906246276736,-16.9721340879811,-15.7313589886861,-3.64246886516689,44.289185653816,-20.2473391572804,-20.3651075185224,5.39243377287281
6.19809916020452,-2.50230616598467,-27.7546161265388,4.71341674626396,-16.8020075766554,-15.4662630050909,-3.55112634292321,43.6063428691365,-20.3508276468892,-20.3249095588618,5.44384771169659
6.11247122484363,-2.33614586306578,-27.6916794128888,4.71686399648023,-16.629414331806,-15.2071137492819,-3.46176385621789,42.9223698989001,-20.4472820990241,-20.2883484465663,5.49962668525042
6.03089377201911,-2.17307165510004,-27.6312505855722,4.71950054049146,-16.4549492837998,-14.9532879874769,-3.37470296323842,42.2370633667275,-20.5361902759357,-20.2557694680257,5.55954725167388
5.95347018849165,-2.01268499947487,-27.5732728208319,4.72143159580396,-16.2792445534456,-14.704194979636,-3.2902388341011,41.550254279507,-20.6170564175372,-20.2274811421566,5.6233497147948
5.88019067914669,-1.85454953764182,-27.5177083136865,4.72276891702985,-16.1029654102979,-14.4592882235005,-3.2086375383839,40.861826624121,-20.6894023812958,-20.20375219303,5.69074194606163
5.810936892168,-1.69819802442843,-27.4645369292083,4.7236281486173,-15.9268051196768,-14.2180757551841,-3.13013353848115,40.1717343211271,-20.7527692217413,-20.1848103120181,5.76140501916636
5.74548867968648,-1.54313995732156,-27.4137543202331,4.72412601781352,-15.7514787494661,-13.9801287111797,-3.05492750974218,39.4800159485977,-20.8067194447642,-20.1708425910607,5.835000449534
5.68353291637918,-1.38886977163321,-27.3653695495794,4.72437751123753,-15.5777160295726,-13.745087911182,-2.98318458659604,38.7868067008472,-20.8508401996202,-20.1619974583117,5.91117874297619
5.62467422895015,-1.23487544378318,-27.3194022587902,4.72449317356837,-15.4062533769854,-13.5126682877934,-2.91503309553844,38.0923471236375,-20.8847476832232,-20.1583879297897,5.98958890003706
5.56844742189451,-1.0806473294801,-27.2758794336272,4.7245766468319,-15.2378252199371,-13.2826610629325,-2.85056378803591,37.3969882694925,-20.9080930114955,-20.1600959850676,6.06988849649068
5.51433132423505,-0.925687057526138,-27.2348318279739,4.72472253808116,-15.0731547786853,-13.0549336473709,-2.78982954140921,36.7011930409488,-20.920569749281,-20.1671778649423,6.15175396359203
5.46176373202883,-0.769516301804336,-27.1962901193744,4.72501466987529,-14.9129444898668,-12.829427316966,-2.73284546492785,36.0055336299571,-20.9219231810354,-20.1796700733922,6.23489071803732
5.41015708506938,-0.611685260541974,-27.1602808783855,4.72552473859476,-14.7578662947857,-12.6061527955464,-2.67958933537973,35.3106851103105,-20.9119612598536,-20.1975958455144,6.31904282875975
5.35891449453309,-0.451780681003516,-27.1268224393691,4.72631138283481,-14.608552043474,-12.3851839471957,-2.63000228800598,34.6174153869502,-20.8905670127573,-20.2209718151157,6.40400194321281
5.30744573103172,-0.289433279483716,-27.0959207634418,4.72741964721606,-14.4655842875262,-12.166649844287,-2.58398970080501,33.9265718395938,-20.8577120256803,-20.2498145841743,6.48961522527034
5.25518278813767,-0.124324421949852,-27.0675653868833,4.72888081477996,-14.3294877386248,-11.9507255265599,-2.54142223140382,33.2390651087623,-20.813470495438,-20.284146872991,6.57579208021564
5.20159465267629,0.0438080502243234,-27.0417255514149,4.73071257321073,-14.2007216534194,-11.7376217990458,-2.50213699670525,32.5558505566774,-20.7580332240207,-20.3240029232698,6.6625094575222
5.14620093735377,0.215164944714246,-27.0183466163308,4.73291947578085,-14.0796733702298,-11.5275744345801,-2.46593892677114,31.8779079963379,-20.6917208432945,-20.3694328354932,6.749815529637
5.08858406113129,0.389881870279388,-26.9973468561201,4.73549365560524,-13.9666531740578,-11.3208331521819,-2.43260237278418,31.2062203238897,-20.6149954935316,-20.4205055410846,6.83783155099864
5.02839969609481,0.568026480142858,-26.978614750184,4.73841574955875,-13.8618906118041,-11.1176507369527,-2.40187309683009,30.5417517153371,-20.5284701372829,-20.4773101393858,6.92675171262787
4.96538523491892,0.749596859513201,-26.9620068715558,4.74165598460606,-13.7655323269914,-10.9182726516082,-2.37347080876199,29.8854260597684,-20.4329146775188,-20.5399553766136,7.01684082776036
4.89936606956256,0.934521098180061,-26.9473464768244,4.74517537448877,-13.6776414355633,-10.7229274655424,-2.34709243355034,29.2381062966339,-20.3292580798457,-20.6085671129308,7.10842971645438
4.83025950940714,1.12265807402,-26.9344228896414,4.7489269710395,-13.5981984204235,-10.5318183938457,-2.32241628524429,28.60057530129,-20.2185857899936,-20.6832837109881,7.20190820534072
4.75807620612284,1.31379945498342,-26.9229917574411,4.7528571145732,-13.5271034825567,-10.3451161931433,-2.29910728853142,27.9735189169093,-20.1021319007585,-20.7642493736228,7.29771572562602
4.68291899415489,1.50767290688696,-26.9127762465629,4.756906632083,-13.4641802533613,-10.1629536020749,-2.27682332675222,27.3575116593959,-19.981265757046,-20.8516055446565,7.39632957774455
4.60497910138029,1.70394647318729,-26.9034692225113,4.76101193855773,-13.409180746438,-9.98542144571195,-2.25522271000568,26.7530055264459,-19.8574729835643,-20.9454805583148,7.49825102902866
4.52452973610756,1.902234071631,-26.8947364354686,4.76510600573312,-13.361791404722,-9.81256645236794,-2.23397265550434,26.1603222268349,-19.7323312578658,-21.0459777861037,7.60398951410998
4.44191711632539,2.10210203147031,-26.8862206941018,4.7691191778234,-13.3216400798457,-9.64439076153141,-2.21275856348058,25.5796490168517,-19.607481502198,-21.153162589151,7.7140453092457
4.35754907707375,2.30307657280228,-26.8775469656033,4.77297983849876,-13.2883037672292,-9.48085303158472,-2.19129376494531,25.0110381938493,-19.4845954934058,-21.2670484364382,7.82889114222002
4.27188147369603,2.50465210485852,-26.868328293598,4.77661496426441,-13.2613169132207,-9.32187098532233,-2.16932932174588,24.4544101604932,-19.3653411511194,-21.387582598997,7.94895327060748
4.18540269317085,2.70630019218251,-26.8581723860535,4.77995062635617,-13.2401801079597,-9.16732516534143,-2.14666338489831,23.9095598469771,-19.2513469250003,-21.5146318868005,8.07459261170842
4.09861669152263,2.90747900839171,-26.846688697367,4.78291251595699,-13.2243689791089,-9.01706361890581,-2.123149574762,23.3761661710571,-19.144166740492,-21.6479689594602,8.20608654121774
4.01202508855288,3.10764307001295,-26.8334958120614,4.78542656229017,-13.2133431076912,-8.87090720139344,-2.09870384615497,22.8538041332521,-19.0452468813068,-21.7872598052236,8.34361199805202
3.92610896437449,3.30625302077842,-26.8182289288988,4.78741969436307,-13.2065547964734,-8.72865518442845,-2.07330935055128,22.3419590892467,-18.9558960105662,-21.9320530344013,8.48723053933286
3.8413111040748,3.50278522210409,-26.8005472420435,4.78882077323254,-13.203457530598,-8.59009087897124,-2.04701890789369,21.8400427116498,-18.8772592981998,-22.0817716568054,8.63687597547899
3.75801951227664,3.69674090119796,-26.7801410211841,4.7895617010601,-13.2035139778328,-8.45498702789099,-2.01995484534904,21.3474101432617,-18.8102973664729,-22.2357079839319,8.79234516746073
3.67655305123715,3.8876546179441,-26.7567382063178,4.78957870192558,-13.2062033831648,-8.32311077671294,-1.9923061351491,20.8633778472628,-18.755770514525,-22.3930221971503,8.95329247284132
3.59715002778941,4.07510183705932,-26.7301103540328,4.7888137678253,-13.2110282231954,-8.19422808699967,-1.9643229487214,20.3872416727531,-18.7142284490549,-22.5527449535621,9.11922817800775
3.51996045352973,4.25870543038198,-26.7000777979091,4.78721626492153,-13.2175200032172,-8.06810750934347,-1.93630891574898,19.918294677125,-18.6860055351068,-22.7137841794494,9.2895210582904
3.44504252514479,4.43814097879334,-26.6665139130903,4.78474469097075,-13.225244103896,-7.94452327978858,-1.9086115121875,19.4558442802514,-18.671221390263,-22.8749359578824,9.46340498915426
3.3723636251411,4.61314078628881,-26.6293484015559,4.7813685604853,-13.2338036124794,-7.82325774362777,-1.88161108834511,18.9992283679806,-18.6697864812744,-23.0348991902622,9.63998932376335
3.30180584758746,4.78349655518487,-26.5885695389999,4.77707037186041,-13.2428421040237,-7.70410314403015,-1.85570908772332,18.5478300122452,-18.6814122474602,-23.1922935347647,9.8182725847817
3.23317573961379,4.94906070167009,-26.5442253472814,4.77184758691511,-13.2520453720909,-7.58686284075794,-1.83131600761717,18.1010905311595,-18.7056251712248,-23.3456800114634,9.99715890707341
3.16621765390158,5.10974631849056,-26.4964236795092,4.76571453476311,-13.2611421449458,-7.47135204647744,-1.80883962122542,17.6585206730665,-18.7417841440403,-23.4935836076951,10.1754766139019
3.10062986567014,5.26552581935648,-26.4453312282588,4.75870414241201,-13.2699038576957,-7.35739818334653,-1.78867392289568,17.2197097705725,-18.7891004380599,-23.6345172029671,10.3519983019379
