Finger Velocity,Scap_X,Scap_Y,Scap_Z,Shoulder horiz abd-adduction,Shoulder flexion-extension,Shoulder internal-external rotation,elbow flexion-extension,forearm pronation-supination,wrist flexion-extension,wrist radial-ulnar deviation
1.99250925147868,-11.612077697825,-34.4262202615126,5.93180131294886,-20.9065874843615,-34.6467898997521,-5.59396882553013,67.7072365236012,-16.9785946722082,-17.7313785642808,11.77834287759
2.67132258049615,-11.7163804630967,-34.3318617992318,5.83456579040107,-21.02773947963,-34.6088811239515,-5.69230395201283,67.7457968342899,-16.708286223969,-17.2322737937227,11.4311597073821
3.42956075546436,-11.8358706677369,-34.2235286955091,5.72288407815625,-21.1391239455591,-34.5572962919769,-5.79086814643285,67.808990246485,-16.4146433158159,-16.6822569045312,11.0522440466209
4.26145560954159,-11.9708209157668,-34.1003024896386,5.59686484627257,-21.2385437093766,-34.4894513705968,-5.88848929326499,67.8987366351144,-16.0966703268947,-16.0838681435925,10.6438231753576
5.16240922640238,-12.1213235656426,-33.9613082595704,5.45677481738702,-21.3238116969383,-34.4026935657796,-5.98388142146952,68.0167602199472,-15.7533970882014,-15.4404718316138,10.2086192830824
6.12787872969231,-12.2872819035084,-33.8057280954659,5.30303123766136,-21.3927810293717,-34.2943432979089,-6.07565601336117,68.1645687170601,-15.3838886209528,-14.7561924200351,9.74978930867331
7.15294672919636,-12.468405264901,-33.6328147477388,5.13619069765499,-21.4433753882576,-34.1617383014167,-6.16233732778717,68.3434376561628,-14.987257081775,-14.0358316489858,9.27085534192821
8.2321538056675,-12.6642083362937,-33.44190512381,4.95693455490495,-21.4736192128041,-34.0022786935472,-6.24238170721179,68.5543995492141,-14.5626763060475,-13.2847707939231,8.77562891910548
9.35944745488136,-12.8740147164982,-33.2324332803579,4.76605135399797,-21.4816673004992,-33.8134718223231,-6.31420070782339,68.798237310159,-14.1093993278283,-12.5088621465073,8.26813240736721
10.5281907761042,-13.0969646630831,-33.003942533517,4.56441678377114,-21.4658333894458,-33.5929757296207,-6.37618775417513,69.0754811241113,-13.6267791945597,-11.7143135859795,7.75252026066968
11.7312061011462,-13.3320268019,-32.7560962907733,4.35297183482228,-21.4246173005434,-33.3386401484136,-6.4267478669144,69.3864078675097,-13.1142932698166,-10.9075694708792,7.23300234493602
12.9608413507139,-13.5780134484492,-32.4886872027637,4.13269990628546,-21.3567302049573,-33.0485440804022,-6.46432984202031,69.731042197783,-12.5715710186496,-10.095190296243,6.71377090365598
14.2090522442859,-13.8335990826277,-32.201644249698,3.90460365199751,-21.2611175567384,-32.7210291533734,-6.48746008184901,70.1091585582611,-11.9984249996628,-9.28373281557191,6.1989321886729
15.4674958742714,-14.0973414323474,-31.8950374206756,3.66968235672032,-21.1369791999058,-32.3547281201941,-6.49477710928297,70.5202835638543,-11.3948844565922,-8.47963179876291,5.69244340855226
16.7276322566139,-14.3677045543637,-31.5690797134815,3.4289106010102,-20.9837861360465,-31.9485880200893,-6.48506565555031,70.9636985148547,-10.7612305274426,-7.68908440870723,5.19805549413458
17.9808309909101,-14.6430832532747,-31.2241262717099,3.18321891320655,-20.8012934349752,-31.5018876684881,-6.45728911613454,71.4384420942322,-10.0980316985043,-6.91793834735558,4.71926222054598
19.2184804193379,-14.9218281564756,-30.8606705784322,2.93347701692512,-20.5895487965263,-31.0142492709857,-6.41061912630939,71.9433136068377,-9.40617776412861,-6.17158535202788,4.25925636141042
20.4320968158584,-15.2022707682599,-30.4793377361561,2.68048015841697,-20.3488963293656,-30.4856440729164,-6.34446102001494,72.4768773924214,-8.68691025856143,-5.45486215801537,3.82089366341708
21.6134312409477,-15.4827478609107,-30.0808749780064,2.42493884342931,-20.0799752010721,-29.9163920643342,-6.25847400784486,73.0374692631178,-7.94184714549067,-4.77196152228946,3.40666541919136
22.7545718021718,-15.7616246210288,-29.6661396694593,2.16747214150976,-19.7837129301591,-29.3071558663517,-6.15258505454893,73.6232059485768,-7.172999513568,-4.12635619079735,3.01868023225938
23.8480391885629,-16.0373160497274,-29.2360851644542,1.90860454488629,-19.4613132340708,-28.658929033018,-6.02699566315022,74.2319985450317,-6.38277815148567,-3.52073870144642,2.65865521102663
24.8868735083909,-16.308306209584,-28.7917449642843,1.64876621393839,-19.1142385154997,-27.9730191144892,-5.8821810738428,74.8615708352349,-5.57398817740915,-2.95697962210052,2.32791634792854
25.8647106611872,-16.5731650145004,-28.3342156843589,1.38829631133295,-18.7441872570752,-27.2510259408288,-5.71888173690525,75.5094830724937,-4.74981037855211,-2.43610626354632,2.02740731898495
26.7758467177388,-16.8305623673456,-27.8646393572067,1.12744902610452,-18.3530667913831,-26.4948157008906,-5.53808729032399,76.1731614256951,-3.91376856625875,-1.95830315210703,1.75770547502542
27.6152890656171,-17.0792795593646,-27.3841855897803,0.866401817934516,-17.9429621051931,-25.7064915058421,-5.34101363810042,76.8499328014958,-3.06968304024547,-1.52293466678338,1.51904347151014
28.3787933999976,-17.3182179458617,-26.8940340585009,0.605265371473971,-17.5161015082537,-24.8883612325383,-5.12907406040698,77.5370642422933,-2.22161113072445,-1.12858929985096,1.3113348461881
29.0628859956017,-17.5464049959948,-26.3953577799963,0.344094741317831,-17.0748201337063,-24.0429035227981,-4.90384556837449,78.2318055993098,-1.3737766730135,-0.77314404785161,1.13420190944482
29.6648710793949,-17.7629978792346,-25.88930754485,0.0829011872510436,-16.6215223261502,-23.1727328609962,-4.6670319240337,78.9314337584881,-0.530491072937431,-0.453846552716271,0.987004533199798
30.1828235272682,-17.9672848017056,-25.3769978424762,-0.178335758940534,-16.1586440040702,-22.2805646635629,-4.42042486727187,79.6332964060204,0.303930750697548,-0.167411854035659,0.8688687573072
30.6155675215838,-18.158684344118,-24.8594945364077,-0.439656395054203,-15.6886160513096,-21.3691812902575,-4.16586512074247,80.3348531970683,1.12525588404147,0.0898699728785512,0.778714513373696
30.9626422185854,-18.3367430750441,-24.3378044787075,-0.701109448412452,-15.2138297020704,-20.4413998251905,-3.90520467683732,81.0337122538904,1.92941665304376,0.322019393205827,0.715282135156531
31.2242558718289,-18.5011317146541,-23.8128671898252,-0.962741430721912,-14.7366047465242,-19.5000423734232,-3.64027170862345,81.7276601674131,2.71258804789373,0.53325042304194,0.677157633763935
31.4012302248862,-18.6516401075915,-23.2855486778219,-1.2245869362287,-14.2591612127562,-18.5479094811443,-3.37283920354778,82.4146840869738,3.47125628657838,0.727855138121446,0.662796927855093
31.4949373072136,-18.7881712379927,-22.7566374207425,-1.48666001338481,-13.7835949911931,-17.5877571250452,-3.1045981285261,83.0929850144066,4.20227614201773,0.910093343463414,0.670549312409697
31.5072310241695,-18.9107344922702,-22.22684248039,-1.74894669038541,-13.3118576793008,-16.6222775412524,-2.83713563997916,83.7609820169648,4.90291545423906,1.08409049221746,0.698680424811228
31.4403761088746,-19.0194383496793,-21.6967936584875,-2.0113986901752,-12.8457407543444,-15.6540839814203,-2.57191858131638,84.4173076804768,5.57088608657938,1.25374627530949,0.745394848678849
31.2969770845423,-19.114482658961,-21.1670435591002,-2.2739283326799,-12.386864037041,-14.6856992951298,-2.31028226915557,85.0607956805881,6.20436138224672,1.42265560908145,0.808858327212693
31.079909858597,-19.1961506439131,-20.6380713890937,-2.53640459626055,-11.9366682862882,-13.7195480534615,-2.05342435374125,85.6904618034927,6.80198086328119,1.59404307240452,0.887219385362095
30.7922584263963,-19.2648007723978,-20.1102883034987,-2.79865029891551,-11.4964116621086,-12.757951769362,-1.8024033494709,86.3054800636093,7.36284343782513,1.77071122390906,0.978630017141577
30.4372589007806,-19.3208586200993,-19.5840440756486,-3.06044036001944,-11.0671697128798,-11.8031266553236,-1.55814127493471,86.9051557332773,7.88649072384984,1.95500269842303,1.08126499506207
30.0182527094301,-19.3648088593103,-19.059634841861,-3.32150110982508,-10.6498384876056,-10.8571832946164,-1.32142972543614,87.4888971270618,8.37288226687815,2.14877557075399,1.19333930715844
29.5386503286168,-19.3971875009272,-18.5373116424418,-3.58151061972166,-10.2451403447833,-9.92212758505456,-1.09293863084069,88.0561878900229,8.82236445227759,2.35339119430899,1.31312322977228
29.0019063709534,-19.4185745107336,-18.0172894609907,-3.84010002687427,-9.85363202315437,-8.99986233566303,-0.873226931726004,88.6065613484403,9.23563482420536,2.56971354867031,1.43895460663607
28.411506244867,-19.4295869058844,-17.4997564562519,-4.09685582402032,-9.47571455150134,-8.09218894739629,-0.662754432357364,89.1395782150518,9.61370336217479,2.79811902965662,1.56924801855582
27.7709639887545,-19.4308724137726,-16.9848830847907,-4.35132308376754,-9.11164459943532,-7.20080868290953,-0.461894145447674,89.6548086193362,9.95785206992008,3.03851556887935,1.7025006717221
27.0838302897661,-19.4231037443701,-16.4728308248685,-4.60300958723818,-8.76154690380847,-6.32732312512739,-0.270944516851882,90.1518190799709,10.2695940276384,3.29036996890654,1.83729498887533
26.3537091620406,-19.4069734907121,-15.9637602289515,-4.85139082429375,-8.42542744081468,-5.47323353755425,-0.0901410020604285,90.6301646796263,10.5506328633328,3.55274236338719,1.97229805088295
25.5842813142565,-19.3831896339034,-15.4578380551095,-5.09591582405588,-8.10318704719522,-4.63993896255202,0.080333442803848,91.0893863701562,10.8028234199693,3.82432672272633,2.10625820432535
24.7793319069475,-19.3524715929353,-14.9552432604652,-5.33601376328802,-7.79463522393296,-3.82873301233285,0.240339300462495,91.5290130495844,11.0281342390675,4.10349629915565,2.23799931452638
23.9427802022327,-19.3155467275755,-14.4561716857213,-5.57110128911623,-7.49950388615785,-3.04079940771524,0.389773115789433,91.9485678211347,11.2286123515849,4.38835284570678,2.36641328954832
23.0787085477966,-19.2731471745183,-13.960839314051,-5.80059047785643,-7.21746085757353,-2.27720640057939,0.528561959490228,92.3475776733634,11.4063507572632,4.67677838298612,2.49045161601071
22.1913882073725,-19.2260068747626,-13.469484039017,-6.02389732782574,-6.94812294384436,-1.53890028894324,0.656659780343658,92.725585713235,11.5634588697363,4.96648826112589,2.60911672146956
21.2852997354233,-19.1748586391547,-12.9823659164213,-6.24045065153727,-6.69106844850629,-0.826698309528658,0.774045577929648,93.0821650424036,11.7020360972146,5.2550842946959,2.72145400491788
20.3651458689937,-19.1204311037956,-12.4997659063448,-6.44970119976479,-6.44584901035599,-0.141281269289017,0.88072321730124,93.4169333853701,11.8241486195856,5.54010683999121,2.82654535922327
19.4358552426455,-19.0634454478664,-12.0219831436009,-6.65113082648332,-6.21200064339155,0.516813659515777,0.976722617528761,93.7295676444859,11.9318093192562,5.81908482717967,2.9235049518086
18.5025755862123,-19.0046117799135,-11.5493308156689,-6.84426149365808,-5.98905385582898,1.14719952225855,1.06210198615605,94.0198176576269,12.0269607293649,6.08958294245742,3.01147793003066
17.5706554010343,-18.9446251402433,-11.0821307784437,-7.02866391411178,-5.7765427218525,1.74964508872094,1.13695074240061,94.2875185574451,12.1114607807781,6.34924536807793,3.08964256755837
16.645613390568,-18.8841611132459,-10.6207070964516,-7.20396563221608,-5.57401278414993,2.32407887120702,1.20139277124617,94.5326012635244,12.1870710606139,6.59583571591183,3.15721616678532
15.7330951132156,-18.8238710917796,-10.1653787473753,-7.36985834340252,-5.38102767765698,2.87059131259827,1.25558967671423,94.755100767249,12.2554472443467,6.82727300766612,3.21346479224432
14.8388164077709,-18.7643772831815,-9.71645177491257,-7.52610425767476,-5.19717438365216,3.38943489236316,1.2997437534216,94.9551619841517,12.3181313366208,7.04166373250073,3.25771665211996
13.9684931159096,-18.7062675886442,-9.27421120620169,-7.6725413229023,-5.02206704891373,3.88102199505746,1.33410046506586,95.1330430471043,12.3765453571988,7.23733012821362,3.28937869352139
13.1277565309418,-18.6500905202408,-8.83891306704787,-7.80908714088956,-4.85534934077584,4.34592047969908,1.35895029609725,95.2891159974095,12.4319861398691,7.41283487777252,3.30795575325402
12.3220539389864,-18.5963503394396,-8.4107768264552,-7.93574143270193,-4.69669535911723,4.78484697235918,1.37462991630552,95.4238649009156,12.4856209711524,7.56700239583502,3.31307142088119
11.5565337796253,-18.5455026053877,-7.98997858177749,-8.05258694138184,-4.54580918859747,5.19865797470195,1.38152265657099,95.5378814731327,12.5384838726358,7.69893681742354,3.30448962831967
10.8359156419968,-18.4979503111979,-7.57664526205048,-8.15978870233536,-4.40242323883487,5.58833893756569,1.38005833057341,95.6318583424143,12.5914724113105,7.80803671539136,3.28213588203603
10.1643469340451,-18.4540407658348,-7.17085008520313,-8.25759166336398,-4.26629557433072,5.95499149300252,1.37071245082308,95.7065801173313,12.6453449957183,7.89400648500427,3.24611700410774
9.54525103268265,-18.4140633515763,-6.77260945723976,-8.34631669139984,-4.13720647412424,6.29981907367873,1.35400488130581,95.7629124601569,12.7007186800361,7.95686425586713,3.1967382533386
8.98117624520263,-18.3782482526635,-6.38188144781399,-8.4263550530691,-4.01495448570645,6.6241111774549,1.33049794708655,95.8017894124145,12.7580675559772,7.99694612807387,3.13451676203716
8.47366061442265,-18.3467662088084,-5.99856591638252,-8.49816149714409,-3.89935225179417,6.92922655796618,1.30079398825812,95.824199279127,12.8177218635788,8.01490647828203,3.06019034472292
8.02313313380859,-18.3197293003544,-5.62250629774007,-8.56224610130461,-3.79022239025893,7.21657563939279,1.2655323091449,95.8311694564093,12.8798679919653,8.01171403657199,2.9747208993472
7.62887486318556,-18.297192727511,-5.25349298889702,-8.61916507810089,-3.68739369019813,7.48760246595731,1.22538544230299,95.8237506715575,12.9445495623973,7.98864339571409,2.87929181124042
7.28906080719288,-18.2791575124813,-4.89126821648788,-8.66951076716495,-3.59069784606373,7.74376650558956,1.18105463085684,95.8030011771421,13.0116697818281,7.94726159387855,2.77529896656232
7.00089327193217,-18.265574033227,-4.5355322117446,-8.71390107006157,-3.49996689127382,7.98652463505971,1.13326444428134,95.7699714825195,13.0809952269882,7.88940943553533,2.66433517746077
6.76082056756948,-18.2563462865632,-4.1859504834376,-8.75296860627375,-3.41503142499332,8.21731364019034,1.08275648790635,95.7256902063023,13.15216117733,7.81717730931033,2.54816802531634
6.56481576468985,-18.2513367698255,-3.84216195833449,-8.7873498795819,-3.33571966197165,8.43753356400923,1.03028223606895,95.6711515881354,13.22467856994,7.73287543891285,2.42871136056788
6.40867531437114,-18.2503718621006,-3.50378775019274,-8.81767474053411,-3.26185728060947,8.6485322218696,0.976595094021012,95.6073051101791,13.2979425998815,7.63899875656954,2.30799096749333
6.28829228601761,-18.2532475794834,-3.17044031836896,-8.84455641086134,-3.19326800036652,8.85159117388041,0.922441860676777,95.5350475570893,13.3712429318006,7.53818689150609,2.18810519951073
6.19986544071934,-18.2597355754742,-2.84173278347986,-8.8685822990671,-3.12977478775871,9.04791340369403,0.868553818355542,95.4552177036122,13.4437754329894,7.43318008404874,2.07118168629456
6.14002053825368,-18.269589256846,-2.5172881783798,-8.89030578590214,-3.0712015715163,9.23861290282122,0.815637711363832,95.3685936785782,13.5146553023024,7.32677213145353,1.95933147161521
6.10583880657554,-18.2825498862241,-2.19674842565817,-8.91023910180411,-3.01737533973097,9.42470630529019,0.76436688374895,95.2758929264072,13.5829314574463,7.22176170300308,1.85460212893622
6.09480418903615,-18.2983525459963,-1.87978284582032,-8.92884736624684,-2.96812849040344,9.60710666170844,0.715372826381292,95.1777745809212,13.6476020425159,7.12090348964823,1.75893150098242
6.10469256144192,-18.3167318449717,-1.56609601336049,-8.94654381940671,-2.92330130936612,9.78661938666019,0.669237345661632,95.0748439865821,13.7076309139567,7.02686065511595,1.67410371031144
6.13343149440398,-18.3374272592364,-1.25543479301268,-8.96368625158201,-2.88274445666322,9.96394036039967,0.626485525024544,94.9676590497175,13.7619649471524,6.94215993285533,1.60170898962973
6.17895878277567,-18.360188011805,-0.947594407028192,-8.98057462196113,-2.84632135343835,10.1396561158793,0.587579614124161,94.8567380717414,13.8095519721039,6.86915049025043,1.54310869395109
6.23910314963461,-18.3847774129052,-0.642423406091357,-8.99744985021164,-2.81391037316578,10.3142459954061,0.552913950937791,94.7425687005372,13.8493590967971,6.80996739870938,1.49940660410767
6.31150291285169,-18.4109766041737,-0.339827440388683,-9.014493757206,-2.78540675175097,10.4880861176792,0.52281099929732,94.6256176297615,13.8803911218198,6.76650025188255,1.47142734055445
6.39356976670403,-18.438587673539,-0.0397717528046833,-9.03183012154072,-2.76072414143961,10.6614549564864,0.497518568888694,94.5063406761625,13.9017087032934,6.74036720175545,1.4597024057309
6.48249685432622,-18.4674361297227,0.257717656515161,-9.04952680350519,-2.73979574477317,10.8345402988434,0.477208274062405,94.3851928706938,13.9124458907319,6.73289445467814,1.46446408750611
6.57530425409303,-18.4973727436334,0.552554215516799,-9.06759886541609,-2.72257497625934,11.0074473251596,0.461975275561851,94.2626382095625,13.9118266511872,6.74510109691893,1.48564720367103
6.66891149707518,-18.5282747777881,0.844592305695461,-9.08601258632097,-2.70903560948453,11.1802075386197,0.451839330887717,94.1391587267969,13.8991799870729,6.77768901086093,1.52289845483799
6.76022571565675,-18.5600466350855,1.13363008699181,-9.10469023393444,-2.69917137576044,11.352788265618,0.446747156864712,94.0152625719324,13.8739532594602,6.83103760218745,1.57559297764226
6.84623493114972,-18.5926199660116,1.41941355288834,-9.123515426021,-2.69299498771812,11.5251024528737,0.446576088663671,93.8914908071687,13.8357233392751,6.90520307093281,1.64285754646222
6.92409803782508,-18.6259532796502,1.70164172096123,-9.14233889689924,-2.69053656864737,11.6970184986069,0.451139006887291,93.7684226810882,13.7842052246781,6.99992199119123,1.72359975337618
6.99122549581954,-18.6600311088826,1.97997284097508,-9.16098448686616,-2.69184147849489,11.8683698738949,0.460190495704939,93.6466791944568,13.7192577871669,7.11461897944608,1.81654239001291
7.04534707335703,-18.6948627829568,2.2540314806363,-9.17925518942269,-2.69696754380827,12.0389643154602,0.473434181286876,93.5269248486187,13.6408863487373,7.248418210533,1.92026214333022
7.08456488900426,-18.7304808596308,2.52341632838694,-9.19693911414826,-2.70598172244114,12.208592401846,0.490531170304241,93.4098675524626,13.5492418533781,7.40015848531598,2.0332315866919
7.10739140603644,-18.7669392636577,2.78770853477911,-9.21381524386594,-2.71895626142425,12.3770353596211,0.511109458884344,93.2962567476073,13.4446164786801,7.56841148288085,2.15386329950294
7.11277295858304,-18.8043111696574,3.04648040101057,-9.22965888033904,-2.73596443291862,12.544071983169,0.534774118130496,93.1868798803296,13.3274356345666,7.75150276677306,2.28055480462982
7.10009993667714,-18.8426866579748,3.29930421588782,-9.24424668472589,-2.75707595425438,12.7094845895755,0.561117993868705,93.0825573953286,13.198246414363,7.94753507916554,2.41173290753058
7.06920502964054,-18.8821701644272,3.54576104036058,-9.25736123127876,-2.78235221279658,12.8730639683922,0.589732600608713,92.9841364514004,13.0577026988764,8.15441345393429,2.54589598534597
7.02035101554141,-18.9228777404542,3.7854492415443,-9.26879500901908,-2.8118414278756,13.0346133233759,0.620218859305113,92.8924835691919,12.9065472650488,8.36987170062699,2.68165282269127
6.95420955707075,-18.9649341399381,4.01799258648886,-9.27835382737442,-2.84557389373308,13.1939512375312,0.652197333923818,92.8084764240139,12.7455914081034,8.59149984262032,2.81775672224895
