Finger Velocity,Scap_X,Scap_Y,Scap_Z,Shoulder horiz abd-adduction,Shoulder flexion-extension,Shoulder internal-external rotation,elbow flexion-extension,forearm pronation-supination,wrist flexion-extension,wrist radial-ulnar deviation
1.51117905661222,-17.5851688773052,-40.4245125473984,2.01325862611177,-27.659723135865,-31.4954842587861,-17.9773006381241,76.3880940415419,-21.5232013829355,-16.4262179966688,2.03622550373497
1.87110766113693,-17.6356573235876,-40.3406160195811,1.99956865730297,-27.6464272579914,-31.5388857518611,-17.9409478310674,76.3107548520558,-21.5500563977158,-16.5124262065013,2.14353815219426
2.24992870114951,-17.6941812330132,-40.2506197199581,1.98166077025713,-27.6233776044102,-31.5834530410998,-17.8984895702075,76.2314118527583,-21.5565637823837,-16.6116225010327,2.25694211114897
2.64460077040569,-17.7607527858321,-40.1548241462939,1.95936228499003,-27.5890918033113,-31.6281787217833,-17.8492578723469,76.1502362176417,-21.539912420302,-16.7240550367336,2.37466739850606
3.05175562365938,-17.8352487982556,-40.0535871305784,1.93255336695702,-27.5420587018429,-31.6719307724942,-17.7925505478996,76.0673064111379,-21.4974354778587,-16.8498542365087,2.49470409185981
3.46774104002859,-17.9174044674856,-39.9473147809443,1.90116925258348,-27.4807580711807,-31.7134638575053,-17.7276370641479,75.982583974937,-21.4266738359283,-16.9890600542274,2.61484498058508
3.88867211117849,-18.0068100388585,-39.8364505740535,1.86520093610255,-27.4036823871443,-31.7514339181805,-17.6537668012383,75.8958897642926,-21.3254395756438,-17.1416564561056,2.73273794746674
4.3104892596338,-18.1029105852857,-39.7214629568148,1.82469430351269,-27.309360511561,-31.7844157409332,-17.57017986018,75.8068815057163,-21.1918778837606,-17.3076113954221,2.84594676471227
4.72902163575457,-18.2050089745181,-39.602831953966,1.779747788081,-27.1963830344842,-31.810923027352,-17.4761204498724,75.7150336116946,-21.0245255860379,-17.4869199739771,2.95201860963174
5.14005459089184,-18.3122719898395,-39.4810353767586,1.73050869885013,-27.0634289601497,-31.8294303715931,-17.3708527357544,75.6196202213234,-20.8223643798599,-17.6796480449732,3.04855624422187
5.5393998875943,-18.4237394732159,-39.356535267643,1.67716842797552,-26.9092933339114,-31.8383964911136,-17.2536788853895,75.5197024331544,-20.5848667305395,-17.8859732183149,3.13329248927792
5.92296725571609,-18.5383362787225,-39.229765201265,1.61995677339147,-26.7329153207129,-31.8362880544829,-17.1239589016038,75.4141206558199,-20.3120323366809,-18.1062201037439,3.20416439709583
6.28683586292786,-18.6548867568098,-39.1011190126296,1.55913562653261,-26.5334061647312,-31.8216034846717,-16.9811316980821,75.3014929216516,-20.0044130863813,-18.3408867441068,3.25938441361581
6.62732425093744,-18.7721314354654,-38.9709414528866,1.49499227516787,-26.3100763892111,-31.7928961741645,-16.8247367543678,75.1802198868327,-19.6631245564919,-18.5906596224176,3.29750583703296
6.94105729958684,-18.8887455220547,-38.8395211839381,1.42783255888249,-26.0624615389478,-31.7487966271233,-16.6544355965389,75.0484970772461,-19.289842394523,-18.8564153827448,3.31748003061163
7.22502882142179,-19.0033588193177,-38.7070864125955,1.35797409117631,-25.790345730586,-31.6880331415993,-16.4700322972964,74.9043347317053,-18.8867824006681,-19.139208409699,3.31870311476794
7.47665845866276,-19.1145766305957,-38.5738033345068,1.28573973492275,-25.4937822640319,-31.6094507519904,-16.2714921850354,74.7455853463555,-18.4566638014266,-19.4402445164839,3.30105021291044
7.69384165037875,-19.2210012226051,-38.4397774142227,1.21145149426804,-25.1731105650206,-31.5120282567596,-16.0589579975716,74.5699787448314,-18.0026560402525,-19.7608420480571,3.26489573225948
7.87499155623596,-19.3212534185879,-38.3050573791211,1.13542496503576,-24.8289687715064,-31.3948932532898,-15.8327628024666,74.375164203255,-17.528310330217,-20.1023826317535,3.2111186197401
8.01907195927525,-19.413993911061,-38.1696416576261,1.05796445804068,-24.4623013377864,-31.2573351918014,-15.5934391161783,74.1587588620645,-17.0374781269017,-20.4662545749134,3.14109204197115
8.12562031737196,-19.497943912454,-38.0334868521253,0.979358866540983,-24.0743611035054,-31.0988165422737,-15.3417237742915,73.9184013674402,-16.5342194988463,-20.8537924806508,3.05665748817684
8.19476028396967,-19.5719048003789,-37.8965177196195,0.899878292788342,-23.6667053591534,-30.9189822264114,-15.0785582249972,73.6518094102161,-16.0227050263469,-21.2662169591022,2.96008387730808
8.22720316536,-19.6347764526291,-37.7586380660071,0.81977139457071,-23.2411855420499,-30.7176674715492,-14.8050840325897,73.3568395797117,-15.5071152945889,-21.7045782801719,2.85401285524634
8.22423791623888,-19.6855739955047,-37.6197419638694,0.739263377556366,-22.7999303278531,-30.4949041759215,-14.5226334897152,73.0315477407743,-14.9915422259496,-22.1697074048041,2.74139206071894
8.18770939062829,-19.7234427060106,-37.4797247693005,0.658554548091052,-22.3453220505838,-30.2509257505473,-14.2327153579305,72.6742479954383,-14.4798963922024,-22.6621770594873,2.62539865912438
8.11998465742727,-19.7476708213315,-37.3384935065825,0.577819345718698,-21.8799665892876,-29.9861702646353,-13.9369958973592,72.2835682252511,-13.9758240535672,-23.1822744709937,2.50935583577163
8.02390726010266,-19.7577000282825,-37.1959762799148,0.497205783061401,-21.4066570927157,-29.7012816082856,-13.6372755079799,71.8585002395522,-13.4826370167008,-23.7299862104813,2.39664518089805
7.90273935855267,-19.753133438705,-37.0521304469678,0.416835225470513,-20.9283321590103,-29.3971083196472,-13.3354614755654,71.3984426831581,-13.0032575558564,-24.304994489176,2.29061799612477
7.7600917616992,-19.733740906354,-36.906949348077,0.336802444767872,-20.4480293274378,-29.074699712753,-13.0335374815909,70.9032350795103,-12.5401796926378,-24.9066833642076,2.19450852655516
7.59984198407516,-19.6994616033349,-36.7604674287906,0.257175888959152,-19.9688349593624,-28.735298987109,-12.7335306923674,70.3731816902382,-12.0954471720285,-25.534152759325,2.11135199429507
7.42604070279765,-19.6504038409688,-36.6127636306912,0.177998134228664,-19.4938317770875,-28.3803330876545,-12.437477382553,69.8090642408174,-11.6706475820091,-26.1862380015975,2.04391009005536
7.24280743801946,-19.5868421799224,-36.4639629711696,0.0992865305482977,-19.0260454840184,-28.0113991931087,-12.1473881540958,69.2121429716343,-11.2669213000533,-26.8615326595908,1.99460627207303
7.0542170253047,-19.5092119191213,-36.3142362967118,0.0210341062587769,-18.5683919955664,-27.6302478294538,-11.8652138535353,68.5841459006026,-10.8849833547468,-27.5584127472962,1.96547282298123
6.86417957029771,-19.4181010808992,-36.163798271618,-0.0567891627635151,-18.1236268522972,-27.2387627344515,-11.5928132441967,67.9272466051735,-10.5251558849285,-28.2750607647805,1.95811113484871
6.67631808830678,-19.3142400268026,-36.0129037427449,-0.134234606287003,-17.6942983534611,-26.8389377399451,-11.3319233561557,67.2440312268751,-10.1874086549335,-29.0094885479312,1.97366616520584
6.49384982132341,-19.1984888540497,-35.8618426916266,-0.211372551006137,-17.2827058353489,-26.4328510817811,-11.0841332437276,66.5374557499606,-9.87140501717555,-29.7595584521702,2.01281547604944
6.31947899649508,-19.0718227446524,-35.7109340431679,-0.288289418852621,-16.8908643271185,-26.0226376771265,-10.8508616656231,65.8107948895959,-9.57655077716501,-30.523002928089,2.0757727603656
6.15531005172454,-18.9353154697603,-35.5605186410044,-0.365084259653912,-16.5204765572777,-25.6104600135672,-10.6333389974463,65.0675841322119,-9.30204359719305,-31.29744299872,2.16230528645171
6.00279049870293,-18.7901212884038,-35.4109517199043,-0.44186479199233,-16.1729129750877,-25.198478366242,-10.4325935080147,64.3115565976577,-9.04692086645858,-32.0804064794866,2.27176425139431
5.8626910918474,-18.6374555198095,-35.2625952037518,-0.518743053379594,-15.8492001132802,-24.7888210946864,-10.2494419888872,63.5465764458913,-8.81010435438033,-32.8693469467202,2.40312662248987
5.73512763584473,-18.4785741115096,-35.1158101362382,-0.595830773567722,-15.5500172698441,-24.383555768725,-10.0844846219001,62.776570543535,-8.59044041967689,-33.6616644063296,2.55504664181155
5.61962396271635,-18.3147525713385,-34.9709495173968,-0.673234594701634,-15.2757011458612,-23.9846618305711,-9.9381038964953,62.0054600508639,-8.38673502007996,-34.4547283367867,2.72591477137373
5.51521027752026,-18.1472646761786,-34.8283517805121,-0.751051278431676,-15.0262577663438,-23.5940054161935,-9.81046733638951,61.237093494875,-8.19778319712514,-35.2459033575743,2.91392149580596
5.42054645380789,-17.9773614059877,-34.6883351037533,-0.829363063208291,-14.8013807555516,-23.2133168384504,-9.70153375223724,60.4751827610451,-8.02239304734422,-36.0325773232782,3.11712313956036
5.33405706257553,-17.8062505701158,-34.5511927054175,-0.908233355087458,-14.6004748556645,-22.8441710938631,-9.61106269589832,59.7232432681615,-7.85940440841773,-36.8121912575761,3.33350676837028
5.25406450275612,-17.6350775898774,-34.4171892153157,-0.987702937866645,-14.4226834791676,-22.4879716147956,-9.5386267525179,58.9845393967607,-7.70770259298025,-37.5822702585282,3.56105137789132
5.1789084211932,-17.4649078766947,-34.2865581471105,-1.06778686215602,-14.2669190746208,-22.145937365293,-9.48362627398324,58.2620360390248,-7.56622753881465,-38.3404543131656,3.79778292740247
5.10704295753612,-17.2967112007759,-34.1595004252499,-1.14847211826467,-14.1318951559361,-21.8190932800002,-9.44530613391202,57.5583569447001,-7.43397877923824,-39.0845278156969,4.04182130955299
5.03710728985987,-17.1313483837593,-34.0361838586847,-1.22971612733593,-14.016158978856,-21.5082639724639,-9.42277406541003,56.8757503660325,-7.31001672200582,-39.8124464697617,4.29141798930009
4.96796866236422,-16.969560573778,-33.9167434125457,-1.3114460176767,-13.9181240212952,-21.2140705885693,-9.41502012166352,56.2160623588556,-7.19346086202645,-40.5223601999692,4.54498371993734
4.89874002103176,-16.8119612782195,-33.8012821119572,-1.39355860399998,-13.8361016144388,-20.9369306481581,-9.42093677539885,55.5807179757225,-7.08348570164906,-41.2126307518786,4.80110638262291
4.82877636900823,-16.6590312428982,-33.689872417503,-1.4759209627345,-13.7683312613599,-20.67706069754,-9.43933915351571,54.970710486343,-6.97931525557639,-41.8818428561829,5.0585595529974
4.75765502682324,-16.511116179113,-33.5825579357228,-1.55837149410969,-13.7130093548889,-20.4344815824081,-9.46898489964851,54.3865986724193,-6.88021703034102,-42.5288081987595,5.31630285639932
4.68514531386233,-16.3684272550107,-33.479355363799,-1.64072137394783,-13.6683161529139,-20.2090261417035,-9.50859318360713,53.8285121553611,-6.78549627179302,-43.1525619884454,5.57347552241246
4.61117295328356,-16.2310441914659,-33.3802566046559,-1.72275631729712,-13.6324409747551,-20.0003491181621,-9.55686244276798,53.2961646111921,-6.69449108122743,-43.7523525909335,5.82938477383666
4.53578390978673,-16.0989207445415,-33.285231015398,-1.80423859623347,-13.6036056384216,-19.8079390807842,-9.61248654548445,52.7888745953442,-6.60656875614464,-44.3276253516655,6.08349076779682
4.45911151909314,-15.9718923222812,-33.1942277617762,-1.88490927073554,-13.5800861657256,-19.6311321557981,-9.67416919518603,52.3055935384152,-6.52112348161404,-44.8780021987151,6.33538974109814
4.3813497426782,-15.8496854714595,-33.1071782459078,-1.96449060199116,-13.5602327517673,-19.4691273598726,-9.74063652321894,51.8449402911335,-6.43757534387074,-45.4032588175739,6.58479680926226
4.30273424462936,-15.7319289726325,-33.0239985612099,-2.04268862268708,-13.5424879471837,-19.321003316185,-9.81064792886044,51.405241410354,-6.35537058103821,-45.9033011692335,6.83152956399729
4.22353180034964,-15.6181662908243,-32.9445919155148,-2.11919584189876,-13.5254029570553,-19.1857361095816,-9.88300530418874,50.9845762114323,-6.27398300329059,-46.3781429782133,7.07549325818719
4.14403737744349,-15.5078691374277,-32.8688509561119,-2.19369406576576,-13.507651934379,-19.0622180090823,-9.95656082306212,50.5808254909784,-6.19291656416766,-46.8278855850143,7.31666800782576
4.06457715462096,-15.4004519020431,-32.7966599312388,-2.26585732020647,-13.4880441442647,-18.949276767242,-10.030223476306,50.1917227662655,-6.1117091074343,-47.2527012258012,7.5550981130226
3.98551484610163,-15.2952867099561,-32.7278966303299,-2.33535486860553,-13.4655338959819,-18.8456952056825,-10.1029645084676,49.8149068877217,-6.02993731791231,-47.6528203908775,7.79088333591231
3.90725805543865,-15.1917188544506,-32.6624340577766,-2.40185432526703,-13.4392281768449,-18.7502308122368,-10.1738218740054,49.4479749481116,-5.94722285204045,-48.0285234772701,8.02417179223118
3.83026106505981,-15.0890823489273,-32.6001418106988,-2.46502487346096,-13.4083919626532,-18.6616350953747,-10.2419038005424,49.0885345153711,-5.8632395233206,-48.3801365444593,8.25515401600861
3.75502053833849,-14.9867153477639,-32.5408871499666,-2.52454060405302,-13.3724512102521,-18.578672454794,-10.3063915313645,48.7342543332881,-5.77772130139872,-48.7080306643723,8.48405772643488
3.68206112267549,-14.8839751995912,-32.4845357736917,-2.58008399611315,-13.3309935500409,-18.5001383322155,-10.3665413166132,48.3829127494104,-5.69047078509747,-49.0126241739859,8.71114283971256
3.61190893367554,-14.7802529203015,-32.430952319271,-2.63134956295465,-13.2837666916824,-18.4248764104233,-10.4216857281401,48.0324432355164,-5.60136774669414,-49.2943870805421,8.93669630772169
3.54505237947389,-14.6749869008494,-32.380000629381,-2.67804768280751,-13.2306745466257,-18.351794637821,-10.4712343840545,47.6809764619096,-5.51037731648696,-49.5538468751822,9.16102641928709
3.48189169383087,-14.567675691232,-32.3315438183209,-2.71990861998134,-13.1717710718286,-18.2798798713518,-10.5146741831169,47.3268784757888,-5.41755737236926,-49.7915950325752,9.38445626723753
3.42268072379654,-14.4578897226378,-32.2854441715293,-2.75668672045702,-13.1072518603273,-18.2082109508739,-10.5515691604792,46.9687846210461,-5.3230647057013,-50.0082935004603,9.60731616929652
3.36746666386919,-14.3452818433346,-32.2415629087841,-2.788164740617,-13.0374435463198,-18.1359700421593,-10.5815600763429,46.6056289265158,-5.22715954417093,-50.2046805177222,9.82993493578111
3.31603512550811,-14.2295965525467,-32.1997598454908,-2.81415824604098,-12.9627911492137,-18.0624521134691,-10.6043638327368,46.2366687832085,-5.13020802731468,-50.3815751462031,10.0526299966124
3.26786873115043,-14.1106778241558,-32.159892998429,-2.83452000238374,-12.8838435462942,-17.9870724405103,-10.6197727827664,45.8615048240147,-5.03268226381308,-50.5398799616231,10.2756965212794
3.22212700815821,-13.9884754215038,-32.1218181997564,-2.84914427107551,-12.8012373324387,-17.9093720628156,-10.6276539573851,45.4800960006226,-4.93515766489856,-50.680581423412,10.499395776256
3.17765371578803,-13.863049616846,-32.0853887991389,-2.85797091485842,-12.7156793934074,-17.8290211378579,-10.627948194232,45.0927699078741,-4.83830734799247,-50.8047475362859,10.7239430610882
3.1330152489169,-13.734574243353,-32.0504555407114,-2.86098920697643,-12.6279285825597,-17.7458201577913,-10.620669121062,44.7002284268813,-4.74289352868937,-50.9135225390952,10.9494956487777
3.08657114458256,-13.6033380223879,-32.016866694091,-2.85824122007734,-12.5387769450655,-17.6596990132719,-10.6059019326749,44.3035487477227,-4.64975595042896,-51.0081185173569,11.1761412281529
3.03657582301176,-13.4697441230503,-31.9844684958126,-2.84982464949369,-12.4490309732531,-17.5707139182769,-10.5838019086139,43.904179803024,-4.55979752416875,-51.0898040152947,11.4038873995935
2.98131025704813,-13.3343079253883,-31.9531059222687,-2.8358949093416,-12.3594933951222,-17.4790422547073,-10.5545926449175,43.5039341110257,-4.47396745550843,-51.1598898594006,11.6326528007827
2.9192437246429,-13.1976529749209,-31.9226237753801,-2.81666633741752,-12.2709459902872,-17.3849754515079,-10.5185640094361,43.1049750038186,-4.39324221964066,-51.2197124473696,11.8622604245036
2.84922926794852,-13.0605051357696,-31.8928680286137,-2.79241235935205,-12.1841338923539,-17.288910068149,-10.476069870706,42.709799211991,-4.31860480323109,-51.2706147451047,12.0924336234182
2.7707417422364,-12.9236849743541,-31.8636873613926,-2.76346449180778,-12.0997517763968,-17.1913372958168,-10.4275256918872,42.3212147973533,-4.2510226663305,-51.3139252771649,12.3227951696129
2.68417363361841,-12.7880984362704,-31.8349348052703,-2.73021010426313,-12.01843225064,-17.092831117754,-10.3734061204712,41.9423144756965,-4.1914248892312,-51.3509355367235,12.5528695573499
2.59120893030239,-12.6547259142167,-31.8064694309442,-2.69308890467206,-11.9407366813881,-16.9940353857595,-10.3142427335945,41.5764444538591,-4.14067896571429,-51.3828764118302,12.7820885312379
2.4952930013132,-12.5246098404626,-31.7781580154656,-2.6525881623419,-11.8671485888138,-16.895650079364,-10.2506221073833,41.2271690173285,-4.09956769477773,-51.4108943353263,13.0097996189474
2.40219116241486,-12.3988409690432,-31.7498766398743,-2.60923672897182,-11.7980696646522,-16.7984170229126,-10.1831843608015,40.8982312388516,-4.0687666143881,-51.4360278993009,13.2352772686257
2.32054909047869,-12.2785435389453,-31.7215121780722,-2.56359796466709,-11.7338183839034,-16.7031053433662,-10.1126222808957,40.5935103231492,-4.04882241377235,-51.4591856802524,13.4577360476843
2.2621942721901,-12.1648595314701,-31.692963648987,-2.51626171953908,-11.674631112214,-16.610496952236,-10.0396810707228,40.3169762432463,-4.04013275236489,-51.4811260401675,13.6763452621941
2.24166788416724,-12.0589322556567,-31.6641434162632,-2.4678355615715,-11.6206655493828,-16.5213723231049,-9.96515867850183,40.0726424469607,-4.04292790210748,-51.5024396949025,13.8902443175958
2.27439899313722,-11.9618895170039,-31.6349782314228,-2.41893547386572,-11.5720062988768,-16.4364968120501,-9.88990657444961,39.8645175102247,-4.05725461701947,-51.5235358397688,14.0985581683016
2.37354142698902,-11.8748266460666,-31.6054101257701,-2.37017626568828,-11.5286723152105,-16.356607738179,-9.81483074933304,39.6965566852249,-4.08296262232755,-51.5446325671396,14.3004122875177
2.54681308090115,-11.7987896821315,-31.5753971620511,-2.32216195120688,-11.490625955747,-16.2824024121108,-9.7408926236449,39.5726143344707,-4.11969410368954,-51.5657521931827,14.4949467085841
2.795277005403,-11.7347590201298,-31.544914058342,-2.27547634884218,-11.4577833478078,-16.2145272740116,-9.66910948589291,39.4963982514468,-4.16687655913777,-51.5867219304972,14.6813288210414
3.11461265817157,-11.6836338339713,-31.5139526935396,-2.23067414518401,-11.4300257704743,-16.1535682777763,-9.60055403024209,39.4714268361665,-4.22371934652103,-51.6071801129022,14.8587647254703
3.4975613156525,-11.6462175855307,-31.4825224965575,-2.18827265209359,-11.4072117387602,-16.1000426305833,-9.53635254438125,39.5009900131449,-4.289214216603,-51.6265879260297,15.0265090433932
3.93600913242931,-11.6232049163671,-31.4506507111145,-2.14874446278554,-11.3891894649279,-16.05439196416,-9.47768131464528,39.5881146487329,-4.36214006912992,-51.6442463540794,15.1838731388276
4.42214424801737,-11.6151702004112,-31.4183825163596,-2.11251118000036,-11.3758093596243,-16.0169769740972,-9.42576087187766,39.7355350486163,-4.44107210650137,-51.6593178386399,15.3302317509742
4.94887231213038,-11.6225580100813,-31.3857809719449,-2.07993834758081,-11.3669362276004,-15.9880735171662,-9.38184779601166,39.945668903473,-4.52439548273631,-51.6708519684413,15.4650280814254
5.50984000987548,-11.6456757139474,-31.3529267456272,-2.05133166975943,-11.3624608124549,-15.9678701063477,-9.34722392004276,40.2205988142237,-4.61032344766912,-51.6778143872806,15.5877774260558
6.09931233852186,-11.6846883804988,-31.3199175726853,-2.02693455353691,-11.3623103542895,-15.9564666923469,-9.3231829128374,40.5620592841712,-4.69691986460028,-51.6791180203334,15.6980694760336
6.71202558168539,-11.7396161114124,-31.2868673898834,-2.00692696056767,-11.3664578432151,-15.9538745717417,-9.31101436433176,40.9714288315071,-4.78212583691557,-51.6736556531179,15.7955694231734
