Finger Velocity,Scap_X,Scap_Y,Scap_Z,Shoulder horiz abd-adduction,Shoulder flexion-extension,Shoulder internal-external rotation,elbow flexion-extension,forearm pronation-supination,wrist flexion-extension,wrist radial-ulnar deviation
0.884885271022379,-13.9923982166139,-38.5250010735166,-0.0354891165065153,-14.703568912764,-30.8036845612734,-3.23530222612103,69.2492316734326,-22.1717009737447,-24.6656494119154,11.5484686726196
0.937253062038797,-13.9615206076963,-38.5357827031971,0.0193971300417987,-14.7979011220586,-30.7860900266717,-3.26702464093638,69.2338251602285,-22.0257670857678,-24.7283606084444,11.6015957288244
0.988625069300127,-13.9274930334523,-38.5446792558885,0.0782886324709828,-14.9019083106797,-30.7657333923586,-3.30518344523064,69.2207131307671,-21.8620913350225,-24.7864859163174,11.650606837152
1.04183930002422,-13.8903337204126,-38.5510332813914,0.140753868510707,-15.0148527838668,-30.7422484679607,-3.35012806117724,69.2100648683152,-21.6809362753005,-24.8389024895678,11.694466205809
1.10098500563027,-13.85009013668,-38.5541488885111,0.206273836521336,-15.1357483337957,-30.7152200618841,-3.40213784327625,69.201976328169,-21.4828451231196,-24.8845145234191,11.7321541386106
1.17134041450188,-13.8068349815262,-38.5533010326218,0.274248951095544,-15.2633586485747,-30.6841816412011,-3.46141175836673,69.1964558240406,-21.2686441063425,-24.9222840502539,11.762695395785
1.25904019764679,-13.7606606416874,-38.547746055316,0.344008518128125,-15.3962012059859,-30.6486138410594,-3.5280590355321,69.1934100679515,-21.0394372978246,-24.9512637218079,11.7851902431615
1.37045999771402,-13.7116721507052,-38.5367332833764,0.414822649621342,-15.5325569150271,-30.6079439547802,-3.60209110239311,69.1926311134215,-20.7965937364003,-24.9706303420154,11.7988471630616
1.51145597438268,-13.6599787600291,-38.5195174565467,0.485916372536929,-15.6704855895912,-30.5615465166966,-3.68341512101365,69.1937847823381,-20.5417269636334,-24.9797176148957,11.8030158643783
1.68671298788347,-13.6056843080058,-38.495371726231,0.55648557814728,-15.8078471358385,-30.5087450591983,-3.77182941459011,69.1964011401239,-20.2766674390026,-24.9780463422901,11.7972189441167
1.89941339006591,-13.5488766516976,-38.4636009489772,0.625714356638807,-15.942328120409,-30.448815083533,-3.86702103289433,69.199867513706,-20.0034286148146,-24.9653501974716,11.781180369004
2.15125881240951,-13.4896165024518,-38.4235549850184,0.692793176614598,-16.0714731781742,-30.3809882338625,-3.9685656418963,69.2034244303154,-19.7241677411127,-24.941595235543,11.7548488921876
2.44271625597081,-13.4279260748091,-38.374641698516,0.756937312001578,-16.1927205351811,-30.3044576115351,-4.07592984910792,69.2061647102807,-19.4411427183419,-24.9069914836128,11.7184146089878
2.77332415724848,-13.3637780142771,-38.3163393412375,0.817404901612629,-16.3034407822438,-30.2183841175237,-4.18847600494809,69.2070357931228,-19.1566665065516,-24.8619952797879,11.6723170946131
3.14195285142557,-13.2970851046169,-38.2482079898186,0.873514058587722,-16.4009779495303,-30.1219036693466,-4.30546946508872,69.2048452302417,-18.8730607192779,-24.8073014905924,11.6172439573191
3.54698583643653,-13.2276912588006,-38.1698997070394,0.924658526999923,-16.4826919061617,-30.0141351069983,-4.42608826142894,69.1982691523082,-18.5926100663282,-24.7438253139196,11.5541191738127
3.98643083785913,-13.1553642601194,-38.0811671176649,0.97032149489219,-16.546001134322,-29.8941885845143,-4.54943509849372,69.1858634244667,-18.3175192557575,-24.6726740383195,11.4840812240967
4.45798309676204,-13.0797906386957,-37.9818701336297,1.0100872925844,-16.588424987954,-29.7611742452745,-4.6745515521624,69.166077144119,-18.0498738218152,-24.5951098245634,11.4084517562338
4.9590615773988,-13.0005729516271,-37.8719806308352,1.04365081248553,-16.6076246202478,-29.6142110037752,-4.80043429021444,69.1372681170214,-17.7916061236665,-24.5125052222436,11.3286962004765
5.48683264745461,-12.9172295976113,-37.7515849638938,1.07082457264463,-16.6014418328688,-29.4524353048691,-4.92605305994713,69.0977199643748,-17.5444674815217,-24.4262936474176,11.2463783157525
6.03823004489316,-12.8291971573734,-37.6208842939325,1.09154341022756,-16.5679351539681,-29.2750098007273,-5.05037010429613,69.0456605576656,-17.3100071113452,-24.3379173645732,11.163111014172
6.60997587154993,-12.7358351259172,-37.4801927852763,1.10586683725108,-16.5054124942809,-29.0811319680911,-5.17236058534934,68.9792815365933,-17.0895582142765,-24.2487756178933,11.0805059508746
7.198604804575,-12.6364328031488,-37.3299337911271,1.11397912473526,-16.412459770661,-28.8700427689065,-5.2910335224144,68.8967587229233,-16.8842312924084,-24.1601754647966,11.0001243158978
7.80049223326065,-12.5302180418864,-37.1706341941944,1.11618720654711,-16.2879649320601,-28.6410355182925,-5.40545269458102,68.7962732824986,-16.6949145104447,-24.0732876211642,10.923431067905
8.41188620691245,-12.4163675179049,-37.0029170973067,1.11291651219216,-16.1311368767972,-28.3934651506584,-5.51475691409677,68.6760334950041,-16.5222807093223,-23.9891092738899,10.85175454719
9.0289426440787,-12.2940181828262,-36.827493074141,1.10470485067551,-15.9415188125284,-28.1267580601807,-5.61817904692064,68.5342969612776,-16.3668005045684,-23.9084353872194,10.7862530294356
9.64776303706194,-12.1622795813654,-36.6451501948806,1.09219447898604,-15.7189956841705,-27.8404226354608,-5.71506314584144,68.3693930165813,-16.2287607645661,-23.8318395538364,10.7278893581815
10.2644337922508,-12.0202467506019,-36.4567430400656,1.07612250395713,-15.4637953855552,-27.5340605164582,-5.80487907970635,68.1797450371996,-16.1082876543886,-23.7596649405185,10.6774143431561
10.8750663235167,-11.867013459639,-36.2631809113475,1.05730978981051,-15.1764835841989,-27.2073784878272,-5.88723409974391,67.9638922410601,-16.0053733440071,-23.6920253648556,10.6353591502625
11.475837034184,-11.7016855839608,-36.0654154414613,1.03664857501966,-14.8579521291111,-26.8602008038106,-5.96188088379837,67.7205105068377,-15.9199054142514,-23.6288160305013,10.602036454308
12.0630263676208,-11.5233944353973,-35.8644277993204,1.01508903323526,-14.5094011767821,-26.4924816303397,-6.0287217335181,67.4484316858436,-15.8516979493017,-23.56973297054,10.5775496994749
12.6330561689897,-11.331309885221,-35.661215684954,0.993625033661776,-14.1323153522556,-26.1043171958676,-6.08780875202327,67.146660865271,-15.8005232765863,-23.5142998359307,10.5618094445559
13.1825246763103,-11.1246531254421,-35.4567803180698,0.973279361214867,-13.72843445,-25.6959571647762,-6.13933998396934,66.8143910592623,-15.7661432979348,-23.4619003545596,10.5545554907323
13.708238544559,-10.9027089142603,-35.2521136412974,0.955088646645494,-13.2997193631522,-25.2678146907938,-6.18365164521583,66.451014852648,-15.7483393481475,-23.4118146041294,10.5553833133511
14.2072413996213,-10.6648371508201,-35.0481859747075,0.940088233948609,-12.8483140997908,-24.820474582666,-6.22120670029442,66.0561325999125,-15.7469395239992,-23.3632571955696,10.5637732389506
14.6768385173339,-10.4104836277746,-34.8459343615293,0.929297179132395,-12.3765048906929,-24.3546990277865,-6.25258016153341,65.629556886626,-15.7618424559073,-23.3154155379144,10.5791208159208
15.1146173245025,-10.1391898203924,-34.6462518319805,0.923703536154941,-11.8866775056538,-23.8714303711768,-6.27844158495724,65.1713130868342,-15.7930365515811,-23.2674865287973,10.6007669207106
15.5184635215278,-9.85060158571766,-34.4499777845557,0.924250052345965,-11.381273969847,-23.371790532484,-6.29953532486232,64.6816359922797,-15.840613829797,-23.218710266138,10.6280263118398
15.8865727280311,-9.54447665989388,-34.2578896454425,0.931820375447204,-10.8627499031094,-22.8570767597599,-6.31665917765471,64.1609626432791,-15.9047775879285,-23.1683996791836,10.6602135637717
16.2174576515623,-9.22069085296599,-34.070695920631,0.947225868472967,-10.3335336864876,-22.3287535634664,-6.33064208939362,63.6099216499165,-15.9858433126942,-23.115965291366,10.6966655522057
16.5099508731475,-8.87924284820128,-33.889030706041,0.971193132328795,-9.79598858786635,-21.7884408394061,-6.34232161472884,63.0293194452749,-16.0842324488689,-23.0609346142527,10.7367599036547
16.7632034302462,-8.52025752033454,-33.7134496726986,1.00435234589055,-9.25237885593726,-21.2378983607272,-6.35252179727431,62.4201240474269,-16.2004588825118,-23.0029659120548,10.7799290537443
16.9766794559994,-8.14398769956581,-33.5444274992393,1.04722654789404,-8.70484062676539,-20.6790069818405,-6.36203209785236,61.783447013049,-16.3351082700233,-22.9418562725909,10.8256697652917
17.1501472020262,-7.75081433051363,-33.3823566843975,1.10022200257126,-8.1553582859341,-20.1137470383354,-6.37158793300567,61.1205243337471,-16.488810641059,-22.8775440827399,10.8735481243932
17.2836668292724,-7.34124500804703,-33.2275476400276,1.16361980726714,-7.60574669955788,-19.5441745357222,-6.3818533063648,60.4326970481959,-16.6622070009402,-22.8101061410596,10.9232001597459
17.3775753966054,-6.9159109099334,-33.0802299433591,1.23756891148599,-7.05763948433713,-18.972395787824,-6.3934059274311,59.7213923131807,-16.855910933554,-22.7397497550745,10.9743283328269
17.4324695093248,-6.47556218239271,-32.9405546164792,1.32208072280039,-6.51248325070155,-18.4005411896588,-6.40672512779793,58.9881055948278,-17.0704664411988,-22.6668002738333,11.0266942428253
17.4491861091394,-6.02106186346538,-32.808597299903,1.41702547837088,-5.9715375419663,-17.8307387912482,-6.42218281368352,58.2343845157218,-17.3063034416213,-22.5916845931696,11.0801079851331
17.4287818933634,-5.55337844804494,-32.6843621930878,1.5221305627614,-5.43588001591131,-17.2650882842578,-6.44003763964721,57.4618147389106,-17.5636924669697,-22.5149112191511,11.1344146814599
17.37251184429,-5.07357720781583,-32.5677866451619,1.63698095159831,-4.90641627525445,-16.7056359348957,-6.46043255132035,56.6720081039643,-17.8427001711332,-22.4370474674595,11.1894787439964
17.2818073304049,-4.58281038230522,-32.4587462902475,1.76102195263574,-4.38389364850572,-16.1543509103786,-6.48339582030558,55.8665930704224,-18.1431472537604,-22.3586943318059,11.2451664424917
17.1582542100553,-4.08230635892372,-32.3570606296319,1.89356439535743,-3.86891814851317,-15.6131033671105,-6.50884566788876,55.0472073822693,-18.4645703615339,-22.2804595183591,11.3013273268324
17.0035713264486,-3.5733579653486,-32.2624989658517,2.03379238075448,-3.3619737853171,-15.0836446039687,-6.53659852403701,54.2154927482504,-18.8061894442398,-22.2029291395788,11.3577750321887
16.8195897317267,-3.0573100092181,-32.1747865929582,2.18077364037781,-2.86344337636272,-14.567589533035,-6.56638087712946,53.3730912354099,-19.1668819340932,-22.126638572381,11.4142679603922
16.608232918929,-2.53554621557988,-32.0936111468159,2.33347246978908,-2.37362998245304,-14.0664016764493,-6.5978445354248,52.521642993836,-19.5451649794325,-22.0520429934824,11.470490295194
16.3714982757196,-2.00947572672264,-32.0186290225736,2.49076510250195,-1.8927781120492,-13.5813808545162,-6.63058495366238,51.6627848676908,-19.939186788622,-21.9794881291895,11.526033793415
16.1114399048381,-1.48051933852311,-31.9494717724317,2.6514572853948,-1.42109388901319,-13.1136536835186,-6.66416209344784,50.798149402937,-20.3467279213791,-21.9091818380611,11.5803808240685
15.8301528855112,-0.95009565288565,-31.8857524010039,2.81430371571851,-0.958763469959233,-12.6641669534449,-6.69812310345649,49.9293637405501,-20.7652131067725,-21.8411672964398,11.6328892060047
15.5297589798325,-0.41960732988199,-31.8270714750444,2.97802891244667,-0.505969117172549,-12.2336839078813,-6.73202594671165,49.0580478903036,-21.1917338771275,-21.7752987515364,11.6827794986726
15.2123937207412,0.109572372387766,-31.7730229605187,3.14134902577418,-0.0629024660822078,-11.8227833995718,-6.76546298583274,48.1858119150579,-21.6230819896262,-21.7112209988255,11.7291254989175
14.8801947560494,0.636112577413525,-31.7231996966489,3.30299403946017,0.370225342014035,-11.4318618437508,-6.79808347399993,47.3142516138414,-22.0557932668121,-21.6483538915318,11.770848766852
14.5352912682794,1.15873709322471,-31.6771984166331,3.46172979354499,0.793176868456421,-11.0611378375416,-6.82961389506459,46.4449423672117,-22.4862011317497,-21.585883276116,11.8067180378392
14.1797942450485,1.67623584398733,-31.6346242298793,3.61637925352132,1.20568501784979,-10.7106592585982,-6.85987515358028,45.579430897451,-22.9104987553088,-21.5227597497719,11.8353543733078
13.8157873413853,2.18747524557586,-31.5950944914048,3.76584247762607,1.60745308698309,-10.3803126004397,-6.88879573125969,44.7192248009728,-23.3248083875163,-21.457706528639,11.85524284919
13.4453180555026,2.6914073609621,-31.5582419998155,3.90911478286382,1.99815808083391,-10.0698342474563,-6.91642009006108,43.8657798335116,-23.72525613298,-21.3892374728816,11.8647514557429
13.0703889347978,3.18707770114166,-31.5237174837955,4.04530267644771,2.37745703711156,-9.77882334396985,-6.94291180192398,43.0204850687539,-24.1080501756969,-21.3156859284425,11.8621576685668
12.6929485405855,3.67363157281963,-31.4911913561971,4.17363719740344,2.7449959909408,-9.50675587526231,-6.96855111224404,42.1846462006912,-24.4695602806674,-21.2352445337937,11.8456828455784
12.3148819294427,4.15031891080588,-31.4603547343215,4.29348440013368,3.10042111731597,-9.2529995590613,-6.9937268912352,41.3594674078761,-24.8063963083204,-21.1460155481829,11.8135342265394
11.9380004569028,4.61649756815142,-31.4309197462337,4.40435280497053,3.44339151587222,-9.01682914438823,-7.01892318538591,40.5460323323613,-25.1154834710053,-21.0460706484845,11.7639538978481
11.5640307760201,5.07163506962396,-31.4026191669169,4.50589773515949,3.77359305111852,-8.7974417278454,-7.04470083707381,39.7452848377023,-25.3941321296932,-20.9335185747026,11.6952736780824
11.1946029888484,5.51530886386873,-31.3752054538695,4.59792254904669,4.09075263171651,-8.59397172238713,-7.07167487668758,38.9580102907691,-25.6401000667624,-20.8065785140237,11.6059745063914
10.8312380120082,5.9472051353865,-31.3484492770535,4.68037685644549,4.39465230570616,-8.40550515114126,-7.10048859281064,38.184818155273,-25.851645374555,-20.663656713036,11.4947485874969
10.4753343357161,6.36711625771512,-31.3221376599428,4.75335187874237,4.6851425642915,-8.23109299141437,-7.13178534628513,37.4261266895098,-26.0275683604684,-20.5034235134039,11.360562275546
10.1281544844007,6.77493698322417,-31.2960718638491,4.81707317372259,4.96215428312657,-8.06976336147413,-7.16617931449305,36.6821505102366,-26.1672411687126,-20.3248878416923,11.2027174771391
9.79081161931158,7.1706594732619,-31.2700651547551,4.87189099707437,5.22570878637123,-7.92053242152571,-7.20422643168218,35.952891724595,-26.2706241387424,-20.1274661551768,11.0209092192481
9.46425684936965,7.55436727659719,-31.2439405898254,4.91826861115478,5.47592559464112,-7.78241394611729,-7.24639682442089,35.2381352479261,-26.3382682532267,-19.9110429299533,10.8152769458487
9.14926792300709,7.92622836703612,-31.2175289499223,4.95676887846877,5.71302751060707,-7.65442761340886,-7.29305002448897,34.537448819754,-26.3713033729021,-19.6760199487425,10.5864470778641
8.84644004568294,8.28648735640325,-31.1906669267502,4.98803949590418,5.93734280070103,-7.5356061400813,-7.34441417320833,33.8501881031033,-26.3714123106252,-19.4233518898713,10.3355644176613
8.55617958914057,8.6354570087086,-31.1631956520257,5.01279723904571,6.14930434228123,-7.42500145878345,-7.40057030955307,33.1755071051813,-26.3407911616796,-19.154566029877,10.0643101274693
8.27870141493954,8.97350919359912,-31.134959633459,5.0318115927132,6.34944571625423,-7.32169017864513,-7.46144265619723,32.5123739950368,-26.2820966832215,-18.8717642559728,9.77490427690491
8.01403041683501,9.30106542801488,-31.1058061364799,5.04588813935423,6.53839433145139,-7.22477858477945,-7.52679557880065,31.8595922194112,-26.198381905183,-18.5776060677399,9.47009135404123
7.76200769281897,9.61858716108837,-31.0755850189373,5.05585205772779,6.71686176950109,-7.13340742020191,-7.59623759229528,31.2158266305149,-26.0930215598111,-18.2752718577257,9.15310768429944
7.52230149744678,9.92656595896458,-31.0441489928357,5.06253205405139,6.88563163859051,-7.04675665203879,-7.66923243144838,30.5796341388127,-25.9696293317525,-17.9684065041077,8.82763041098632
7.29442281943355,10.2255137465048,-31.0113542646457,5.06674501516813,7.0455453166112,-6.96405034981038,-7.74511681387489,29.9494981987789,-25.8319693315212,-17.6610441689345,8.49770855122798
7.07774510944002,10.5159532639127,-30.9770615031908,5.06928164435552,7.19748603869374,-6.88456169890251,-7.82312413379579,29.3238662431967,-25.6838645389627,-17.3575161348165,8.16767761005865
6.87152738534364,10.7984088963266,-30.9411370989869,5.07089331416458,7.34236183276604,-6.8076180519358,-7.90241296708918,28.7011890210101,-25.529105199138,-17.0623444640706,7.84206023471412
6.67493970367567,11.0733980289557,-30.9034546980271,5.07228034265001,7.48108782635987,-6.73260581113473,-7.98209897412314,28.0799606814637,-25.371360235861,-16.7801251363985,7.52545632051091
6.48708983585974,11.34142306645,-30.863897000997,5.07408186722605,7.6145684381871,-6.65897486336669,-8.06128858730138,27.458758395718,-25.2140946483314,-16.5154050204563,7.22242673987704
6.30704994341885,11.6029642339465,-30.822357808507,5.07686745565883,7.74367993190025,-6.58624226906111,-8.13911278952206,26.8362803213033,-25.0604955717399,-16.2725574809378,6.93737536835231
6.13388210895789,11.8584732528477,-30.7787442694597,5.08113055912738,7.86925375620973,-6.51399492985876,-8.21475933504585,26.2113807892667,-24.9134092473661,-16.0556615574731,6.67443425357094
5.96666173594599,12.1083679604486,-30.732979263976,5.08728387850423,7.99206103929002,-6.44189101261802,-8.28750192173248,25.5831017154241,-24.7752906214572,-15.8683894492022,6.43735658011639
5.80449805495388,12.3530279186489,-30.6850038311664,5.09565667883761,8.11279855850273,-6.36965997890245,-8.35672506643027,24.9506993900733,-24.648166732733,-15.7139065199636,6.22942154894232
5.64655123561581,12.5927910300127,-30.6347795365102,5.10649404359655,8.23207647356447,-6.29710115393275,-8.42194373548066,24.3136659712759,-24.5336144887034,-15.5947872670001,6.05335449437049
5.49204587027355,12.8279511482737,-30.5822906639452,5.11995800825104,8.35040808753264,-6.22408086107013,-8.48281711617125,23.6717451869553,-24.4327528814885,-15.5129497578643,5.91126460869336
5.34028083950911,13.058756638777,-30.5275461172865,5.13613045608537,8.46820187468562,-6.15052823660355,-8.5391562607956,23.0249419368704,-24.3462491604136,-15.4696100340232,5.80460163840813
5.1906357716073,13.2854098186854,-30.4705809287969,5.15501760357593,8.58575597835648,-6.07642991185184,-8.59092566875211,22.3735256732535,-24.2743379762214,-15.4652570088224,5.73413195423904
5.04257445613408,13.5080671918504,-30.4114572995483,5.17655585442483,8.70325533097351,-6.00182379659359,-8.6382391697523,21.7180276223262,-24.2168520647697,-15.4996475391748,5.69993356006914
4.89564566321373,13.7268403900798,-30.3502651302166,5.20061876783758,8.82077148190031,-5.9267922192969,-8.68135071491535,21.0592320819652,-24.1732626745729,-15.5718206738182,5.70140894398599
4.74948185830527,13.9417977384665,-30.2871220334545,5.22702487368168,8.93826513765688,-5.85145468089831,-8.72064086292446,20.39816218878,-24.1427276868103,-15.6801295838229,5.7373142008317
4.60379629545206,14.1529663725441,-30.2221728430838,5.25554607459496,9.05559133037634,-5.77596046607988,-8.75659986241807,19.7360606845391,-24.124145241309,-15.8222893352886,5.80580254721005
4.45837893075632,14.3603348442535,-30.1555886477455,5.28591639638905,9.17250704387079,-5.7004813339855,-8.78980828197316,19.0743663199397,-24.1162106632691,-15.9954384234779,5.9044801635723
4.31309153364435,14.5638561593846,-30.08756537887,5.31784087424492,9.28868104928047,-5.62520448215283,-8.82091613350963,18.4146866108816,-24.1174745641083,-16.1962118145679,6.03047219615066
