Finger Velocity,Scap_X,Scap_Y,Scap_Z,Shoulder horiz abd-adduction,Shoulder flexion-extension,Shoulder internal-external rotation,elbow flexion-extension,forearm pronation-supination,wrist flexion-extension,wrist radial-ulnar deviation
1.33609894537479,-17.5227866179395,-39.8026405981649,2.20101142443108,-28.1121483480788,-31.735825221781,-17.2007207990345,76.9514541696949,-16.2153600344707,-16.8095128774017,2.9955297873093
1.64235156077972,-17.5781927066131,-39.7083435873031,2.16848228336312,-28.096738747349,-31.8040006012356,-17.1666134724486,76.9131573420486,-16.2014342254421,-16.6676557996601,2.87204006211467
1.96514119111212,-17.6407181564201,-39.6062300497269,2.13228487455082,-28.0715967130059,-31.8724573434174,-17.1252141198498,76.8667015929153,-16.1784783316146,-16.5187681016742,2.73272061005219
2.30196303406371,-17.7102671074538,-39.4966194842621,2.09245364218619,-28.0351285096447,-31.9399512610052,-17.075687503739,76.8109659063882,-16.145594307774,-16.3648694103032,2.57793628714303
2.650031698403,-17.786622059911,-39.3799121764362,2.04907236650325,-27.9856925032286,-32.0051422185318,-17.0171710969499,76.7447511508137,-16.1019819925185,-16.2083039793492,2.40833665398368
3.00631376736224,-17.8694409040521,-39.2565798971472,2.00227307155087,-27.9216207163482,-32.0666118653451,-16.9487846896503,76.6667840047083,-16.0469626121914,-16.0517210613807,2.22485365361525
3.36756843965451,-17.9582564041639,-39.1271548987457,1.95223372392502,-27.8412432254364,-32.1228831790283,-16.8696422042345,76.575722894928,-15.9800005418324,-15.8980448055875,2.02869080346309
3.73039463906624,-18.0524781226767,-38.9922176911963,1.89917485324413,-27.7429152231227,-32.1724412476392,-16.7788657644185,76.4701662710387,-15.9007224424721,-15.7504333327078,1.8213039631588
4.09128344344772,-18.15139669411,-38.8523841385705,1.84335525513859,-27.6250464469123,-32.2137547134635,-16.6756019740541,76.3486635204442,-15.8089329260512,-15.6122270656564,1.60437412645781
4.44667478685313,-18.2541902991481,-38.7082924256234,1.78506694412125,-27.486132537527,-32.2452973451377,-16.559040266084,76.2097287803288,-15.7046259760655,-15.4868869107026,1.37977308067681
4.79301737245041,-18.3599331443134,-38.5605904129669,1.72462951366043,-27.3247877484204,-32.2655692824381,-16.4284330804433,76.0518578230084,-15.5879914676336,-15.3779234832225,1.14952317777828
5.12683068093813,-18.467605718741,-38.409923836295,1.66238404387457,-27.1397782980655,-32.2731175914596,-16.2831175204629,75.8735480827091,-15.4594162778447,-15.288819212831,0.915752834876155
5.44476790155603,-18.5761065757944,-38.2569257200555,1.59868668270555,-26.9300555538162,-32.2665558622049,-16.1225380244089,75.6733217572646,-15.3194796496952,-15.2229457604093,0.680649662655262
5.74367856385501,-18.6842653762783,-38.1022072798483,1.53390202023033,-26.6947881687401,-32.2445826635753,-15.9462694806108,75.4497517592313,-15.1689426655031,-15.18347964763,0.446413247858912
6.02066961389752,-18.7908569342679,-37.9463504906251,1.46839637839151,-26.4333922597031,-32.2059987351618,-15.7540401191454,75.2014901090643,-15.0087318917055,-15.1733192951532,0.215209574388167
6.27316366026782,-18.8946160249646,-37.7899024069815,1.40253114413825,-26.1455587092431,-32.1497228394702,-15.5457534331513,74.9272981664964,-14.8399174646102,-15.195006781461,-0.010871123956811
6.4989531125305,-18.9942527413903,-37.6333712420529,1.33665627428014,-25.8312766889433,-32.0748062252262,-15.3215083176424,74.6260779026242,-14.6636860833349,-15.250657559229,-0.229851606110685
6.696248945116,-19.0884682167827,-37.4772241422425,1.27110408981352,-25.4908525367265,-31.9804456688562,-15.0816165654816,74.2969032460239,-14.4813095588099,-15.3419010836168,-0.43989892083336
6.86372283907086,-19.1759705577661,-37.3218865278754,1.20618345668414,-25.1249231799843,-31.8659950773964,-14.8266168393188,73.9390504093401,-14.294109745605,-15.4698348376915,-0.639349226477207
7.00054147755219,-19.2554908572888,-37.1677427936905,1.14217442377946,-24.7344633885448,-31.7309756609405,-14.5572842584946,73.5520260290321,-14.1034208668185,-15.6349936580826,-0.826726122725881
7.1063917925777,-19.3257991721955,-37.0151380806671,1.07932336411225,-24.320786269739,-31.575084710974,-14.2746348072407,73.1355919359915,-13.9105504298887,-15.837335645469,-1.00075293909101
7.18149597484369,-19.3857203521159,-36.8643807674135,1.01783864881247,-23.88553657989,-31.3982030277179,-13.9799238806735,72.6897854222117,-13.7167401057942,-16.0762453179439,-1.16035974883635
7.2266150617427,-19.4341495910783,-36.7157453135311,0.957886880529779,-23.4306766192182,-31.2004010002086,-13.6746384341944,72.2149339804334,-13.5231280774602,-16.3505540206198,-1.30468603164769
7.24303991183659,-19.4700675455253,-36.569475124357,0.899589723320332,-22.9584646992594,-30.9819432578473,-13.3604823945648,71.7116636687084,-13.330714425667,-16.6585769294732,-1.43307989859533
7.23256836604088,-19.4925548315957,-36.4257851794317,0.843021386791833,-22.4714264196142,-30.7432917060615,-13.0393552332441,71.1809004854614,-13.1403310909137,-16.9981652849767,-1.54509466180106
7.19746740923483,-19.5008056896913,-36.2848642543611,0.788206848613815,-21.9723192525991,-30.4851066607491,-12.7133238913212,70.6238644234998,-12.9526178184408,-17.3667717996454,-1.64048332773546
7.14041922328723,-19.4941405918642,-36.1468766497189,0.735120924914227,-21.4640911925889,-30.2082457295859,-12.3845885655117,70.0420561883883,-12.7680052637827,-17.7615265859222,-1.71919134975233
7.06445023158839,-19.4720175703311,-36.0119634082286,0.683688313772688,-20.9498344636068,-29.9137600687426,-12.0554431929409,69.4372368976947,-12.5867061218146,-18.1793205404589,-1.78134772220212
6.97284267213823,-19.4340420622608,-35.8802430479358,0.633784735578604,-20.4327354782148,-29.6028876754014,-11.7282317816617,68.8114013991016,-12.4087147682623,-18.6168929472137,-1.82725427685457
6.86902901859887,-19.3799750926848,-35.7518118701941,0.58523927297601,-19.9160223888016,-29.2770434512086,-11.4053019975629,68.1667461316158,-12.2338155014305,-19.0709201126616,-1.85737288918804
6.75647081281182,-19.3097396479982,-35.6267439273201,0.537837974439008,-19.4029116584106,-28.937805875831,-11.0889576142254,67.505632683055,-12.0615990757414,-19.538102078718,-1.87231022922817
6.63852524770403,-19.2234251199538,-35.5050907607393,0.491328733608476,-18.8965550999956,-28.5869002530529,-10.7814115425786,66.8305483556591,-11.8914868534936,-20.0152448313131,-1.87279969452806
6.51830510064217,-19.1212897184145,-35.3868810423837,0.445427396904435,-18.3999887968772,-28.2261786283009,-10.4847411686127,66.1440651343649,-11.7227615842463,-20.4993358888806,-1.85968024330429
6.3985401269715,-19.0037607594518,-35.2721202624612,0.399824989052556,-17.9160852318408,-27.8575966196457,-10.2008476340389,65.4487984557183,-11.5546035592887,-20.9876116471418,-1.83387201582541
6.28145030578621,-18.8714327389292,-35.1607906017533,0.35419588159626,-17.4475098215069,-27.4831875456954,-9.9314205023212,64.7473670998368,-11.3861306787216,-21.4776153058892,-1.79634889344623
6.16864270587488,-18.7250631086378,-35.0528511092634,0.308206664206134,-16.9966828757597,-27.1050343632819,-9.67790897819547,64.0423553813614,-11.2164408042755,-21.9672445781644,-1.74810846815236
6.0610434887979,-18.5655656881596,-34.9482382827005,0.261525417453915,-16.5657477823419,-26.7252400347895,-9.44150051775966,63.3362786129774,-11.0446546537413,-22.4547886910013,-1.69014022543469
5.95887420232477,-18.3940016719855,-34.8468671248626,0.213831037723824,-16.15654596758,-26.3458970203708,-9.22310730612898,62.6315525754409,-10.8699574400537,-22.9389544611008,-1.62339301773819
5.86167708028637,-18.2115682262809,-34.7486327247375,0.164822239251697,-15.7705989272679,-25.969056629011,-9.02336071613744,61.9304674717448,-10.6916374965503,-23.4188815012807,-1.54874307589527
5.76838826013195,-18.0195847118136,-34.6534123867662,0.114225860242677,-15.4090973788783,-25.5966989640289,-8.84261351572611,61.2351665909233,-10.5091202808379,-23.8941468853298,-1.46696384982934
5.67745189047796,-17.8194766194092,-34.5610683032043,0.0618041304082738,-15.0728973721383,-25.2307041678829,-8.68094928074077,60.5476296771664,-10.3219964166203,-24.3647598283591,-1.37869889579646
5.58696338237301,-17.6127573630806,-34.4714507314481,0.00736061324159063,-14.7625230146463,-24.8728256170725,-8.53819820900978,59.8696608070107,-10.1300427988342,-24.8311470880557,-1.28443886760528
5.49482754694299,-17.4010081442649,-34.3844016003672,-0.0492553878329675,-14.478175320158,-24.5246656505748,-8.41395833377959,59.2028804316929,-9.93323621670664,-25.2941298628221,-1.18450346934118
5.39891735469942,-17.1858561772351,-34.2997584284158,-0.10814608221075,-14.2197465640734,-24.1876543420689,-8.30762100948567,58.5487211472943,-9.731759391714,-25.7548929745925,-1.0790290372931
5.29722114299629,-16.9689516465123,-34.2173583962339,-0.169364134008939,-13.9868394304462,-23.8630317489089,-8.21839949472226,57.9084267095167,-9.52599972499834,-26.2149470784827,-0.967962278136512
5.18796944348845,-16.7519438438534,-34.1370423866327,-0.232913233675697,-13.7787901595495,-23.551833985307,-8.14535948130113,57.2830538054758,-9.31654134667612,-26.6760845476347,-0.851060601939174
5.0697362775521,-16.5364569946858,-34.058658794376,-0.298750159793139,-13.5946948605799,-23.2548833693955,-8.08745049791031,56.6734761213923,-9.10415122460665,-27.1403295890472,-0.7278994070259
4.94151305405318,-16.3240663218026,-33.9820669195669,-0.366788127159948,-13.4334381454572,-22.9727827868909,-8.0435372276448,56.0803902908983,-8.88976012883141,-27.6098831203521,-0.597886530590102
4.80275570291808,-16.1162749002593,-33.9071397873129,-0.436901172705035,-13.2937232670731,-22.7059143068679,-8.01242989656829,55.5043233616336,-8.67443920351766,-28.0870630180115,-0.460283825895528
4.65340728974054,-15.9144918286763,-33.8337662762954,-0.508929306112452,-13.1741030047474,-22.4544419832577,-7.99291300068813,54.9456414641406,-8.45937282922174,-28.5742405355824,-0.314235461471984
4.4938991781066,-15.7200121829253,-33.7618524849475,-0.582684141601837,-13.0730106250721,-22.2183186769756,-7.98377174165058,54.4045593943796,-8.24582841635124,-29.0737739529825,-0.158802102957279
4.32513402114664,-15.5339991404878,-33.6913223123326,-0.65795472397147,-12.9887903482482,-21.9972966339558,-7.98381564960772,53.8811508252536,-8.03512379151765,-29.5879407936026,0.00700029205269157
4.1484536609454,-15.357468581281,-33.6221172779986,-0.734513264492352,-12.9197268545194,-21.7909414560322,-7.99189899607084,53.3753588499799,-7.82859293541543,-30.1188701663686,0.184158682680402
3.9655945447137,-15.1912763920654,-33.5541956469543,-0.812120516182456,-12.8640734590955,-21.5986490146744,-8.00693773872668,52.8870065440959,-7.62755098601871,-30.6684768967543,0.373619980862043
3.77863263186274,-15.0361086292352,-33.4875309579604,-0.890530548996025,-12.8200786612651,-21.4196647940469,-8.02792288391983,52.4158072279109,-7.43325958536821,-31.2383990834321,0.576248789074128
3.5899190308833,-14.8924746288221,-33.422110072853,-0.969494733261831,-12.7860108373238,-21.253105115787,-8.05393029155086,51.9613741311461,-7.24689376237308,-31.8299405930815,0.792787623852114
3.40200682489814,-14.7607030926337,-33.3579308727536,-1.04876479873345,-12.7601809048896,-21.0979796915007,-8.08412707612937,51.5232292173233,-7.06951156464169,-32.4440198549153,1.02382121060518
3.21756880999895,-14.6409411252087,-33.294999727282,-1.12809489965584,-12.7409628437358,-20.9532149648303,-8.1177748717825,51.1008110218844,-6.90202756523643,-33.081126181368,1.26974615814005
3.03930536221802,-14.5331561473993,-33.2333288582709,-1.20724267780365,-12.726812015153,-20.8176777380727,-8.15423032049757,50.6934814903423,-6.74519118664827,-33.7412847187244,1.5307469928047
2.86984169761463,-14.4371405698074,-33.1729337110703,-1.28596937367069,-12.716281271955,-20.6901986247204,-8.19294320173349,50.3005319561484,-6.59957053302402,-34.4240310083165,1.80677918303781
2.7116148932425,-14.3525190755688,-33.113830434935,-1.364039091361,-12.7080348864929,-20.5695949231463,-8.23345264030617,49.9211885492611,-6.46554214043811,-35.1283960204724,2.09755945243338
2.56675375175808,-14.2787583398992,-33.0560335609171,-1.44121737406748,-12.7008603392654,-20.4546925586436,-8.27538181019,49.5546174486331,-6.34328677780485,-35.8529024170582,2.40256339861679
2.4369591890972,-14.215179004372,-32.9995539524415,-1.51726928960988,-12.6936780054552,-20.3443467826339,-8.31843150812922,49.1999304624408,-6.23279118011546,-36.5955726847806,2.72103022572778
2.32339867869331,-14.1609697248662,-32.944397088656,-1.59195725371907,-12.6855487548029,-20.2374613483067,-8.36237292019544,48.8561914294989,-6.1338553857329,-37.353949615408,3.05197425662546
2.22663329891218,-14.1152031177887,-32.8905617211834,-1.66503883007135,-12.6756794492931,-20.1330059067325,-8.40703985562754,48.5224238882895,-6.04610519244979,-38.1251293542967,3.39420279809432
2.14659669831103,-14.0768534316661,-32.8380389221363,-1.73626474235546,-12.6634262936568,-20.0300313904456,-8.4523206715721,48.197620367088,-5.96900914476074,-38.9058068941835,3.74633986389129
2.082638732,-14.0448157636568,-32.7868115190469,-1.80537731871162,-12.6482959756358,-19.9276831728274,-8.49815005334838,47.8807535213115,-5.90189940116354,-39.6923334766259,4.10685518803628
2.03363254305035,-14.0179266193231,-32.7368538924588,-1.87210956527554,-12.6299445328285,-19.8252118128931,-8.54450075085937,47.5707891949014,-5.84399577896866,-40.4807848859603,4.47409785315129
1.99812695391725,-13.9949855785678,-32.6881320923497,-1.93618503433842,-12.6081739028692,-19.7219812220351,-8.59137531493427,47.2667013255472,-5.79443221559148,-41.2670390794119,4.84633369419006
1.97451350083441,-13.9747777826113,-32.6406042087552,-1.99731861520415,-12.5829261509526,-19.6174741287045,-8.63879783950438,46.9674884643462,-5.75228481854579,-42.0468610155882,5.22178542079028
1.96117491976699,-13.956096900395,-32.5942209127193,-2.05521833436427,-12.5542754160421,-19.5112947733243,-8.68680570274493,46.6721915549972,-5.71660061867651,-42.8159919869385,5.59867416608776
1.95658980403736,-13.9377681750746,-32.548926071799,-2.10958820742372,-12.5224176661963,-19.4031688397443,-8.7354413140491,46.3799125281545,-5.68642611605209,-43.570240334454,5.97526096959998
1.95938212869963,-13.9186711014638,-32.5046573443368,-2.1601321379874,-12.4876583993137,-19.2929407181273,-8.78474391178627,46.0898332153357,-5.66083472878078,-44.3055702361643,6.34988659233248
1.96831858904025,-13.8977612520239,-32.4613466698399,-2.20655880838387,-12.4503984675547,-19.1805682890217,-8.83474151172303,45.8012340657862,-5.63895231996832,-45.0181853645153,6.72100808318308
1.98226715503494,-13.8740907579958,-32.4189205976433,-2.24858745603024,-12.4111182438179,-19.0661155068405,-8.88544316305485,45.5135121486038,-5.61998007784861,-45.7046045576875,7.08723067484751
2.00013547650955,-13.8468269649784,-32.3773004288104,-2.28595438227413,-12.3703603899479,-18.9497431304686,-8.93683170992645,45.2261979344547,-5.60321414976695,-46.3617271469951,7.44733386080442
2.02080826345029,-13.8152688159399,-32.3364021815718,-2.31842000276244,-12.3287115313612,-18.8316979921175,-8.98885726781571,44.9389703737802,-5.58806157467815,-46.9868861266972,7.80029085507791
2.04309981948162,-13.7788605648233,-32.2961364235783,-2.34577622210227,-12.2867831918553,-18.7123012131891,-9.04143160492397,44.6516698230786,-5.57405221454856,-47.5778879000812,8.14528102758742
2.06573301403503,-13.7372024872511,-32.2564080409754,-2.36785389794215,-12.245192393047,-18.5919357734883,-9.0944235797683,44.3643084226523,-5.56084654755615,-48.1330379275481,8.48169530480144
2.08735055974273,-13.6900583303845,-32.217116031328,-2.38453014420764,-12.2045423701354,-18.4710338244201,-9.14765574378602,44.0770776023649,-5.54823935233804,-48.6511522844741,8.80913489006502
2.10655971934652,-13.6373593317362,-32.1781534119281,-2.39573520585894,-12.1654038932231,-18.3500641117203,-9.20090218434448,43.7903524859683,-5.53615947963297,-49.1315558468473,9.12740395959412
2.12200832101404,-13.5792047353906,-32.1394073263592,-2.40145862041426,-12.1282977051108,-18.2295198400342,-9.25388766356539,43.5046930743088,-5.52466606830675,-49.5740684214981,9.43649721730007
2.13248852035968,-13.5158588389293,-32.1007594127186,-2.40175437212304,-12.0936785870227,-18.1099072722431,-9.30628809994636,43.2208422058209,-5.51394170482983,-49.9789805372053,9.73658334815417
2.13706489705899,-13.4477447065139,-32.0620864717104,-2.3967447517121,-12.0619215399031,-17.9917353147104,-9.3577324372847,42.9397204113816,-5.50428313484462,-50.3470208228803,10.0279855007721
2.13522456106802,-13.3754347727881,-32.0232614484782,-2.38662266391007,-12.0333105209236,-17.8755062982695,-9.40780594207293,42.6624178930037,-5.49609020012312,-50.6793169716413,10.3111599552089
2.12704793301508,-13.2996386323497,-31.9841547237584,-2.37165217657958,-12.0080301056864,-17.7617081230194,-9.45605496262401,42.3901839571219,-5.48985368347993,-50.9773522645477,10.586674089391
2.11339822747919,-13.2211883609907,-31.9446356995296,-2.35216717351503,-11.9861603601461,-17.6508078901153,-9.50199317253602,42.1244143193972,-5.48614268876242,-51.2429195093313,10.8551846469182
2.0961230719601,-13.1410217514102,-31.90457466015,-2.32856804987386,-11.9676751059005,-17.5432470946014,-9.54510931113747,41.8666367641048,-5.4855920592867,-51.4780740074799,11.1174171357206
2.07824972700589,-13.0601638702542,-31.863844888011,-2.30131646886723,-11.9524436512236,-17.439438402772,-9.58487642371054,41.6184956812764,-5.48889015675099,-51.6850867859608,11.3741469678813
2.06413226080717,-12.9797073565499,-31.8223250089337,-2.27092827763454,-11.9402359409636,-17.339763990628,-9.62076258985831,41.3817360136919,-5.4967671107446,-51.8663988989164,11.6261827147323
2.0594744926626,-12.9007918865857,-31.7799015358829,-2.23796475634603,-11.9307309544421,-17.2445753785196,-9.65224310465464,41.158187120788,-5.50998344190164,-52.0245772602619,11.8743516309004
2.07111924268003,-12.8245832309498,-31.7364715725778,-2.20302244293598,-11.9235280561195,-17.1541946578636,-9.67881404143081,40.9497470080577,-5.52931879443531,-52.1622722693396,12.1194874183823
2.10649953122321,-12.7522523277532,-31.6919456338706,-2.16672183153434,-11.9181608865011,-17.0689169658328,-9.70000707413059,40.7583672835594,-5.55556041495626,-52.2821773649842,12.3624200585096
2.17274352576829,-12.6849547903066,-31.6462505370191,-2.12969528306327,-11.914113281935,-16.9890140249646,-9.71540536659394,40.5860390976662,-5.58949099950605,-52.386990504175,12.6039674234415
2.27561905000333,-12.6238112544349,-31.5993323145896,-2.0925745115546,-11.9108366433489,-16.9147385310321,-9.72466024456985,40.4347802103673,-5.63187559362678,-52.4793774353631,12.8449282823925
2.41867754962042,-12.5698889480916,-31.551159093997,-2.05597802024802,-11.9077681426724,-16.846329145658,-9.72750826084838,40.3066232225043,-5.68344734523824,-52.5619366106188,13.0860762471953
2.60292523379726,-12.5241848331898,-31.5017238812515,-2.02049885772588,-11.9043491624785,-16.7840158276413,-9.72378815920846,40.2036049095691,-5.74489204614947,-52.6371656727836,13.328154165511
2.82708355129354,-12.4876106260072,-31.4510471794427,-1.98669304631401,-11.9000434049683,-16.7280252162399,-9.71345715463455,40.1277565125105,-5.81683153322726,-52.7074295873612,13.5718684710835
3.0882202325879,-12.460979948005,-31.3991793676843,-1.95506900403284,-11.8943541723182,-16.678585761538,-9.69660588754547,40.0810947719551,-5.89980614301798,-52.7749305806349,13.8178830395055
3.38244927232479,-12.4449977948935,-31.3462027640998,-1.92607824022713,-11.886840400719,-16.6359322860029,-9.67347138690196,40.0656134433101,-5.99425651703605,-52.8416800738087,14.0668121734545
3.70550032286349,-12.4402524419175,-31.2922332959405,-1.90010755574098,-11.8771311149029,-16.600309662637,-9.64444739735023,40.0832750033896,-6.10050513428603,-52.909472800846,14.3192124461798
