Finger Velocity,Scap_X,Scap_Y,Scap_Z,Shoulder horiz abd-adduction,Shoulder flexion-extension,Shoulder internal-external rotation,elbow flexion-extension,forearm pronation-supination,wrist flexion-extension,wrist radial-ulnar deviation
0.937409481897419,-16.9590369679706,-38.2727380303374,2.7643019922615,-26.444996693712,-31.5835695401152,-18.331130094584,75.0358536186219,-16.7559347898314,-18.5097961425468,3.41453477071743
0.959605995400557,-16.9466511622076,-38.2854180250826,2.8151179473275,-26.5090095437157,-31.5619132793841,-18.3177707093095,75.0264112304964,-16.742843178135,-18.4522448182342,3.35679766816782
0.972317583985494,-16.9326641917285,-38.2984549503192,2.86833010593501,-26.5802069571951,-31.538459590964,-18.3085779419578,75.024129289152,-16.7233920952131,-18.3854680708701,3.284957860258
0.978788596891813,-16.9169426781045,-38.3114085850612,2.92344061112103,-26.6578626821719,-31.5129030594493,-18.3042690240629,75.029591750228,-16.6974391615281,-18.3092781369283,3.19834846753362
0.984952254476361,-16.8993292203293,-38.3237660743901,2.9799059178217,-26.7410288251561,-31.484883059435,-18.3055679656642,75.0432551043748,-16.6649316806412,-18.2236141646361,3.0964934581168
1.00009253754499,-16.8796372525335,-38.3349465364223,3.03714520905812,-26.828532135525,-31.4539808682751,-18.3131908079156,75.0654243783337,-16.6259141056313,-18.1285529037145,2.97913179589562
1.03676714418022,-16.8576455954402,-38.3443076045677,3.09454984442171,-26.9189747225982,-31.4197178755088,-18.3278291657909,75.0962304747703,-16.5805339386509,-18.0243164220836,2.84623780263973
1.10911043595928,-16.8330928635931,-38.3511538183826,3.15149364771926,-27.0107395802804,-31.38155503454,-18.3501324677572,75.1356095439631,-16.529045666048,-17.9112761913492,2.69803668613428
1.22950537035517,-16.8056719308008,-38.3547467222318,3.20734380459115,-27.1020011747274,-31.338893658204,-18.3806894240985,75.1832850511531,-16.4718123624527,-17.7899529748565,2.53501427483739
1.40554352052124,-16.7750246918231,-38.3543164812263,3.26147211046195,-27.1907412055953,-31.2910776005202,-18.4200093612725,75.2387531395916,-16.4093046593581,-17.6610121009246,2.35792016261553
1.63946113207765,-16.7407373861843,-38.3490747770033,3.31326628923411,-27.2747694901449,-31.2373967945513,-18.4685041362161,75.3012717926805,-16.3420968664877,-17.5252538914565,2.16776369533309
1.92979828619353,-16.7023367680572,-38.3382287029187,3.36214109968785,-27.3517497538848,-31.177092033479,-18.5264713846416,75.369854175145,-16.2708601515221,-17.3835992148353,1.96580250256029
2.27340453729714,-16.6592874117834,-38.3209953433201,3.40754896389355,-27.4192299538119,-31.1093607928695,-18.5940798571615,75.4432663940591,-16.1963528141432,-17.2370703272332,1.75352357258833
2.66667888282077,-16.6109904313927,-38.2966166999751,3.44898988836263,-27.4746766194305,-31.0333638053348,-18.6713575530176,75.5200297803294,-16.1194078207876,-17.086767363482,1.53261717555237
3.10605243692538,-16.5567838602683,-38.2643746227217,3.48602049501389,-27.5155125759091,-30.9482320297559,-18.7581832687488,75.5984276637589,-16.0409178872772,-16.933841046618,1.30494424532113
3.58806537938562,-16.4959448835047,-38.2236054085431,3.51826202270578,-27.5391573116052,-30.8530736249074,-18.8542820371089,75.6765165088188,-15.961818503894,-16.7794624030424,1.07249811648267
4.10929707128794,-16.4276940452071,-38.1737137491038,3.54540719162261,-27.5430691654412,-30.7469805560858,-18.9592247482191,75.7521411953106,-15.8830693909709,-16.6247904892312,0.837361758865257
4.66627116109867,-16.3512014737801,-38.1141857280881,3.56722584018255,-27.5247884364465,-30.6290345359722,-19.0724320395402,75.8229541626854,-15.8056349492814,-16.4709393485864,0.601661854946934
5.2553786861635,-16.2655950882447,-38.0446005942224,3.58356925194581,-27.4819804608273,-30.498312119208,-19.1931823389236,75.8864380793014,-15.7304643203112,-16.318945613838,0.367521242652568
5.87282876951846,-16.1699706736882,-37.9646410615684,3.59437309515966,-27.412477668571,-30.353888919904,-19.3206237683355,75.9399316437965,-15.658471690588,-16.1697383199069,0.137011410734079
6.51462506133523,-16.0634036467371,-37.8741019147007,3.59965890573404,-27.3143196309413,-30.1948430855914,-19.4537894777213,75.9806580863237,-15.5905174634586,-16.0241125387166,-0.0878931396362669
7.17656324676132,-15.9449622726492,-37.7728967246495,3.5995340592167,-27.185790147611,-30.0202583205024,-19.5916158803548,76.0057559361919,-15.5273908884562,-15.8827083559724,-0.305356822135132
7.85424498030908,-15.8137220442915,-37.6610625155733,3.59419020067903,-27.0254504947079,-29.8292268850184,-19.7329631969072,76.0123116708685,-15.4697946897151,-15.7459965044815,-0.51371943715992
8.54310436044442,-15.6687808915561,-37.5387622642073,3.58390013241498,-26.8321680506919,-29.620853089585,-19.8766376776809,75.997393938268,-15.418332178424,-15.6142716971054,-0.711525664311535
9.23844382622948,-15.5092748610713,-37.4062851629155,3.56901319297504,-26.6051396187308,-29.3942578408559,-20.0214148556057,75.9580891078361,-15.3734972819915,-15.4876543747304,-0.897546354470258
9.93547696604356,-15.334393894004,-37.2640446291242,3.54994919064321,-26.3439088582611,-29.1485847835112,-20.1660631849991,75.8915379232491,-15.3356678843196,-15.3661011796801,-1.07079075755361
10.629376171564,-15.143397336328,-37.112574095381,3.5271909770727,-26.0483773224544,-28.8830085156817,-20.3093674432417,75.7949729917536,-15.3051028420532,-15.249423990872,-1.23050921182466
11.3153233864265,-14.9356288393346,-36.9525206620136,3.50127576544157,-25.7188086838643,-28.5967452436778,-20.4501513132807,75.6657567613113,-15.2819429990467,-15.1373168626382,-1.37618621951755
11.9885624286054,-14.7105303418384,-36.7846367360259,3.47278531776952,-25.3558258362066,-28.2890660882185,-20.5872986190084,75.5014195229098,-15.2662164411661,-15.029389738198,-1.5075242297779
12.6444515404418,-14.4676548608818,-36.6097698152794,3.44233515099522,-24.9604007012021,-27.9593130660389,-20.7197727444444,75.299696848081,-15.2578481024882,-14.9252073811972,-1.62441885022007
13.278514962998,-14.2066778488994,-36.4288506080547,3.41056293931304,-24.5338367494158,-27.6069175570641,-20.8466338221505,75.0585657443316,-15.256673654322,-14.8243316111112,-1.72692661256627
13.8864924570614,-13.927406901454,-36.2428797063235,3.37811631712334,-24.0777444546168,-27.2314208433229,-20.967053321745,74.7762786945237,-15.2624573960025,-14.7263646899502,-1.81522680020514
14.464385811127,-13.629789623634,-36.0529130558082,3.34564031016459,-23.5940101284234,-26.8324960913956,-21.0803257097709,74.4513946521039,-15.274913641959,-14.6309916304728,-1.8895791725213
15.0085014926026,-13.3139194890104,-35.8600464853045,3.31376464063984,-23.0847588140273,-26.409970965108,-21.1858768980752,74.0828060090108,-15.2937308790305,-14.5380192842564,-1.95027966958873
15.5154887151576,-12.9800395567145,-35.6653995704827,3.28309116311167,-22.5523121461189,-25.963849914305,-21.2832692593758,73.6697605564591,-15.3185977610167,-14.4474103005479,-1.99761633311176
15.9823723136427,-12.6285439528124,-35.4700991132238,3.25418168901025,-21.9991422988027,-25.494335099029,-21.372203071171,73.2118775350783,-15.3492298267789,-14.3593103986235,-2.03182771197673
16.4065799382125,-12.2599770722148,-35.275262516766,3.22754644868631,-21.4278233291883,-25.0018448833759,-21.4525143526225,72.7091570220351,-15.3853956970167,-14.2740678246453,-2.0530659104715
16.7859632003525,-11.8750305133106,-35.081981330945,3.2036334234608,-20.8409813636315,-24.4870288730566,-21.524169177058,72.1619821172629,-15.4269414486867,-14.1922443065942,-2.06136617457549
17.1188125242309,-11.4745378126689,-34.8913052336618,3.18281875863895,-20.2412451508768,-23.9507785726989,-21.5872546627198,71.5711136488727,-15.4738118982069,-14.1146172389724,-2.05662451118971
17.4038655757673,-11.0594670946256,-34.7042267075479,3.16539844438917,-19.6311985113364,-23.3942328952539,-21.6419669544614,70.9376773967858,-15.5260676445732,-14.0421732242865,-2.03858433670296
17.6403092577108,-10.6309117862788,-34.5216666652142,3.1515814280843,-19.0133361394557,-22.8187779563793,-21.688596605015,70.2631441126912,-15.5838969265299,-13.9760934704426,-2.00683260946602
17.8277753706245,-10.1900795719518,-34.3444612695231,3.14148430231999,-18.3900240679456,-22.2260408210269,-21.7275118473543,69.5493028764573,-15.6476216269103,-13.917731861437,-1.96080537505315
17.9663301460088,-9.73827977449365,-34.1733501813529,3.13512769785656,-17.763465887738,-21.6178771264915,-21.7591403196847,68.7982285602392,-15.7176970939523,-13.86858674529,-1.89980220595272
18.0564579581115,-9.27690935733537,-34.0089664399033,3.13243449702258,-17.1356755519922,-20.996352772572,-21.7839498600952,68.0122443594752,-15.7947058083722,-13.8302675997261,-1.82300869568507
18.0990396147764,-8.80743774532852,-33.8518281357661,3.13322996510816,-16.5084572958359,-20.3637201297234,-21.802429027753,67.1938804852204,-15.8793452607808,-13.804457750684,-1.72952596501211
18.0953257146602,-8.33139066701313,-33.7023319782253,3.13724387046383,-15.8833928944246,-19.7223894521554,-21.815068028779,66.3458301900157,-15.9724106778746,-13.7928742687864,-1.61840598902337
18.0469056381066,-7.850333224823,-33.560748799138,3.14411462806422,-15.2618361776206,-19.0748963735932,-21.8223407207895,65.4709043204794,-16.0747734289234,-13.7972261120441,-1.48869138931385
17.9556728117142,-7.36585239782358,-33.4272209950384,3.15339545878898,-14.6449144386389,-18.4238664868976,-21.8246883336321,64.5719855596448,-16.1873560577725,-13.8191715634815,-1.33945814536091
17.8237869518577,-6.87953917056383,-33.3017618985341,3.16456250922062,-14.0335361358221,-17.7719780513194,-21.8225054740003,63.651983449987,-16.3111049319172,-13.8602760301704,-1.16985951290844
17.6536340495244,-6.39297046571547,-33.1842570853513,3.17702482441786,-13.4284041057454,-17.1219238376926,-21.816128884985,62.7137911852485,-16.446961491938,-13.9219712902225,-0.979169349502888
17.4477849068154,-5.90769104776762,-33.0744676478235,3.19013601075086,-12.830033385462,-16.4763730357232,-21.8058293201785,61.7602450374551,-16.5958330323943,-14.0055172630051,-0.766823057401308
17.2089530727948,-5.42519556873276,-32.9720354813124,3.2032073720222,-12.2387726744929,-15.8379340384249,-21.791806776718,60.7940871549505,-16.7585638614339,-14.1119673242482,-0.532454453166136
16.9399530509009,-4.94691094612469,-32.8764906251114,3.21552225385407,-11.6548284421465,-15.2091188093094,-21.7741892161352,59.8179323340698,-16.935907585945,-14.2421381000658,-0.275927050583709
16.6436596590851,-4.47417929464738,-32.7872606686876,3.22635129020726,-11.0782906956247,-14.592309438722,-21.7530347834042,58.834239235161,-17.1285011637391,-14.3965845772069,0.00264151219327957
16.3229694138807,-4.00824167037761,-32.7036821794658,3.23496821202099,-10.5091594658842,-13.9897274078498,-21.7283374127981,57.8452863876856,-17.3368412579156,-14.5755812949168,0.302862881390609
15.9807647770513,-3.55022292268917,-32.6250140385451,3.24066585129257,-9.94737113742554,-13.4034059993299,-21.7000355895521,56.8531532126465,-17.5612633215267,-14.7791103386539,0.624069902325968
15.6198820445704,-3.10111797705887,-32.5504524971351,3.24277195390834,-9.39282383873045,-12.8351662197108,-21.6680239239074,55.8597061832418,-17.8019237360855,-15.0068567775426,0.965317386940172
15.2430835691155,-2.66177988570908,-32.4791476960517,3.24066440072825,-8.84540121624841,-12.2865965319893,-21.6321670872967,54.8665901434652,-18.0587852348971,-15.2582119980461,1.32539174080178
14.8530348865664,-2.23290998109135,-32.4102213256047,3.2337854308333,-8.3049940326619,-11.7590366366609,-21.5923155541132,53.8752247068587,-18.3316057776949,-15.5322850628469,1.70282910056382
14.4522871632352,-1.81505044951633,-32.3427850471329,3.22165446832263,-7.77151915488526,-11.2535654835598,-21.5483224880077,52.8868055616846,-18.6199310213545,-15.8279218068359,2.09594127294312
14.0432651947876,-1.40857960867647,-32.2759592544416,3.20387917854734,-7.24493562176102,-10.7709936399032,-21.5000610226609,51.9023104119612,-18.923090550662,-16.1437309343875,2.50284841945292
13.6282609735231,-1.01371012491958,-32.2088917197802,3.1801644208625,-6.72525759727652,-10.3118600855034,-21.4474411339326,50.9225091860744,-19.2401980681909,-16.4781159637738,2.92151712017142
13.2094326040067,-0.630490347522837,-32.1407756348606,3.15031881964326,-6.21256411479951,-9.87643346249503,-21.3904252980427,49.9479780509599,-19.5701557593791,-16.8293115309768,3.34980220314787
12.7888080966645,-0.258808868725713,-32.0708665245615,3.1142587410346,-5.70700559829708,-9.46471777225086,-21.3290421794358,48.9791166873759,-19.9116630266941,-17.1954223627755,3.78549057375089
12.3682933157571,0.101597664756383,-31.9984975015802,3.07200953886805,-5.20880721192684,-9.07646246671055,-21.2633976804549,48.0161682162722,-20.263229722958,-17.5744631799617,4.22634524327462
11.9496831146211,0.451133564461403,-31.9230923679184,3.02370401749714,-4.71826914764245,-8.71117680460209,-21.1936828001336,47.0592411227407,-20.6231939143575,-17.9643978813742,4.6701478429604
11.5346744705553,0.790330128090958,-31.8441761559363,2.9695781474666,-4.23576401543218,-8.36814823484231,-21.1201778862104,46.1083325086018,-20.9897440729729,-18.3631765485345,5.11473810097694
11.1248802478372,1.11982899092889,-31.761382820183,2.9099641572242,-3.7617315508857,-8.0464644479947,-21.0432530231017,45.1633520218926,-21.3609454396779,-18.7687690631821,5.55804902611745
10.7218420835489,1.44036321746011,-31.6744599213645,2.84528120817522,-3.29667089823295,-7.74503862028285,-20.9633644766588,44.2241458605264,-21.7347701140804,-19.1791944281344,5.9981368534396
10.3270408207001,1.75273664154334,-31.5832702739676,2.77602394001938,-2.84113076455164,-7.46263727150494,-20.8810473055074,43.2905203216996,-22.109130225489,-19.5925452100176,6.43320513788456
9.94190292076346,2.05780203228616,-31.4877906535495,2.70274924564902,-2.39569777373473,-7.19791007021413,-20.7969044358505,42.3622644582719,-22.4819133334066,-20.0070068461701,6.86162270770157
9.56780138915883,2.3564387028241,-31.388107770824,2.62606169553832,-1.9609833778698,-6.94942085146484,-20.7115926680886,41.4391714977682,-22.8510190245818,-20.420871836291,7.28193549036193
9.20604996097362,2.64953018623913,-31.2844118047085,2.5465980769552,-1.53760970841064,-6.7156790763351,-20.6258062278407,40.5210587693334,-23.2143955476416,-20.8325490590079,7.69287249001162
8.85788964118588,2.93794257633673,-31.1769878358206,2.46501154251963,-1.12619476665008,-6.49517096952709,-20.5402585832345,39.6077859603809,-23.5700752789182,-21.2405686319389,8.09334642417092
8.52446719433537,3.22250407631241,-31.0662055396368,2.38195587655572,-0.727337359958218,-6.28638961805798,-20.4556633194229,38.6992715807734,-23.9162078507391,-21.6435828815029,8.48244970810829
8.20680584647513,3.50398622668919,-30.952507500343,2.29807038675536,-0.341602189721017,-6.08786338192609,-20.372714885674,37.7955075446885,-24.2510898897561,-22.040364089502,8.85944659012304
7.90576929253263,3.78308720744619,-30.8363965066085,2.21396591052662,0.0304945066191114,-5.89818203914231,-20.2920700086336,36.8965717891472,-24.5731904944794,-22.4297997232823,9.22376228368367
7.62202105665199,4.06041753507897,-30.7184221919826,2.13021238535142,0.388498364517588,-5.71602015867354,-20.2143305024716,36.0026388362568,-24.8811718071653,-22.8108858489834,9.57496992752701
7.35598224469529,4.33648840470472,-30.5991673794578,2.04732836779469,0.732028974762844,-5.54015727176888,-20.1400281135468,35.1139881790127,-25.1739042795285,-23.1827193950933,9.91277615074998
7.10779161326651,4.6117028597261,-30.4792344777717,1.9657727995941,1.06079029342368,-5.36949449880552,-20.069611925763,34.2310103372489,-25.4504764721246,-23.5444898838729,10.2370059370278
6.87727246750858,4.88634990587802,-30.3592322580387,1.88593921743932,1.37457907998072,-5.20306738243043,-20.0034387301477,33.3542104025166,-25.7101994512342,-23.895471182887,10.5475873792086
6.66391098684987,5.16060161820374,-30.2397633145397,1.8081524888085,1.67329112688739,-5.04005477517688,-19.9417666300167,32.4842088791267,-25.9526060492465,-24.2350137482628,10.8445368022588
6.46685000652457,5.43451321330796,-30.1214124795662,1.73266803370839,1.95692512205544,-4.87978373128039,-19.8847520137857,31.6217396407465,-26.1774454277401,-24.5625377300815,11.1279446169038
6.28490101092528,5.70802597672277,-30.004736416016,1.65967337468462,2.2255840743007,-4.72173045867883,-19.8324498916287,30.7676448607757,-26.3846735133089,-24.8775271932341,11.3979621593491
6.11657524578978,5.98097285583478,-29.8902545544426,1.58929176364512,2.47947432055491,-4.56551749617267,-19.784817475838,29.9228668400615,-26.5744399528511,-25.179525598779,11.6547896877212
5.96013271906562,6.25308646232818,-29.7784414785897,1.52158757338279,2.71890221165258,-4.41090738718994,-19.7417207958536,29.0884367457864,-26.7470722582491,-25.4681326100014,11.8986656483909
5.81364582763016,6.52400917912756,-29.669720802481,1.45657310799045,2.94426863298117,-4.25779321682027,-19.7029440693567,28.2654603869813,-26.9030577925302,-25.7430022274791,12.1298572886783
5.6750728048649,6.79330503460506,-29.5644605308951,1.39421646589919,3.1560615575396,-4.106186453911,-19.6682014862169,27.455101277272,-27.0430242048402,-26.0038422025918,12.3486526655782
5.54233539745095,7.06047298673996,-29.4629698584442,1.33445007310498,3.35484686091442,-3.95620259165924,-19.6371509975671,26.658561362594,-27.1677188590213,-26.2504146218921,12.555354071684
5.4133952222654,7.32496124674118,-29.3654973395954,1.27717949372779,3.54125766062539,-3.80804511131458,-19.6094096458409,25.8770599086127,-27.2779877253344,-26.4825374968301,12.7502728618356
5.28632400780039,7.58618226328007,-29.2722303481663,1.22229212919446,3.71598247971438,-3.66198830936242,-19.5845699353618,25.1118111392057,-27.3747541226745,-26.70008713584,12.9337256191554
5.15936414115269,7.84352798663586,-29.1832957362265,1.16966544412695,3.87975257126064,-3.51835953033783,-19.5622167319798,24.3640012853651,-27.4589976197188,-26.9030010158793,13.1060315553727
5.03097733345927,8.09638504005526,-29.0987615974724,1.11917440668397,4.03332876680522,-3.37752133211216,-19.5419441859827,23.6347657367086,-27.5317333406109,-27.0912808111333,13.2675110034204
4.89988053538184,8.34414944611311,-29.0186400374982,1.07069789655695,4.1774882194775,-3.23985407652598,-19.5233721796487,22.9251669819994,-27.5939918823102,-27.2649951955869,13.4184848323345
4.76506931646201,8.5862405881871,-28.9428908498599,1.02412390687698,4.31301140134467,-3.10573938985979,-19.5061618020621,22.2361739824137,-27.6468000363971,-27.4242820331442,13.5592745996401
4.6258296971369,8.82211412621037,-28.8714259901635,0.979353441361892,4.4406696887135,-2.97554487917536,-19.4900293563474,21.5686435483233,-27.6911625141861,-27.5693496093309,13.6902032605303
4.48173989330247,9.05127362526127,-28.8041147311859,0.936303082205051,4.56121383185008,-2.84961042123785,-19.474758422197,20.9233041957458,-27.72804489792,-27.7004766351622,13.8115962753872
4.33266364881434,9.27328069223964,-28.7407893713236,0.894906276092257,4.67536355787856,-2.72823626091958,-19.460209540827,20.3007428506429,-27.758358076632,-27.8180108517701,13.9237829859437
4.17873685682111,9.48776345122291,-28.6812513559777,0.85511345203605,4.78379850068751,-2.61167307372702,-19.4463271653394,19.7013946559453,-27.7829444578902,-27.9223661645849,14.0270981519064
4.02034906954855,9.69442322577218,-28.625277657407,0.816891137456301,4.88715059381794,-2.50011407263536,-19.4331436225313,19.1255360264512,-27.8025662586061,-28.0140183218607,14.1218835492158
3.85812131812664,9.89303933943044,-28.5726272471531,0.780220269389175,4.98599800261806,-2.39368917686505,-19.4207799476909,18.5732809990592,-27.8178961616303,-28.0934992140341,14.2084895334614
3.69288144230563,10.0834719941154,-28.5230474919525,0.74509390348094,5.0808606096997,-2.29246120759618,-19.4094435650002,18.0445808444748,-27.8295105832097,-28.1613899040186,14.2872764736503
