Finger Velocity,Scap_X,Scap_Y,Scap_Z,Shoulder horiz abd-adduction,Shoulder flexion-extension,Shoulder internal-external rotation,elbow flexion-extension,forearm pronation-supination,wrist flexion-extension,wrist radial-ulnar deviation
1.00018617178195,-13.8349111335424,-35.098905776474,3.83750199761239,-17.2455276037793,-33.751591933643,-2.93629238037804,69.1698693001819,-17.4110954818019,-17.3053643380035,3.54631938762424
1.23725574918896,-13.8212600505077,-35.1131629273055,3.88101773427663,-17.2958877200043,-33.6938998256218,-2.94967503954824,69.1404656429163,-17.2865504133231,-17.5356040172192,3.74729668895068
1.49729239470076,-13.8078894489636,-35.1275614169511,3.92689228299236,-17.3483480097197,-33.6385645506395,-2.96252631795749,69.113192548573,-17.1518027771235,-17.8042454339548,3.97898195131008
1.77792714171927,-13.7951413895514,-35.1418266331542,3.97474770568416,-17.4023418388395,-33.5866857895176,-2.97470075158429,69.0887382105868,-17.0071363443082,-18.1114561351208,4.24068974336381
2.07687845464656,-13.7833852635895,-35.1556485356618,4.0241540131206,-17.4572353933388,-33.5393737838578,-2.9860629827286,69.0677787907296,-16.8529054982667,-18.4566640924939,4.53098711035037
2.39178286136048,-13.7730130102655,-35.168684688215,4.07463478686479,-17.512334331284,-33.4977229322243,-2.99649023741033,69.0509601849961,-16.6895218431922,-18.8385338289978,4.84767933605668
2.72011624333375,-13.7644334282045,-35.1805641897904,4.12567412187491,-17.5668914396027,-33.4627835694221,-3.00587411087832,69.0388788510491,-16.5174397319887,-19.2549683527968,5.18782407794095
3.05916292717754,-13.758065630481,-35.190892441453,4.17672475300269,-17.6201150495344,-33.4355325970847,-3.01412152119168,69.032062072289,-16.3371414914243,-19.7031375525361,5.54777505390979
3.40601216954352,-13.7543317222612,-35.1992566548372,4.2272171854113,-17.6711779722316,-33.4168437168923,-3.02115475039608,69.0309480700544,-16.1491231355112,-20.1795320615314,5.92325468531486
3.75757180710282,-13.7536488132963,-35.2052319740267,4.27656961191059,-17.7192267435613,-33.4074580819367,-3.02691056745643,69.0358664026635,-15.9538812993855,-20.6800400148566,6.3094533028311
4.11059358598849,-13.7564205087886,-35.2083880461393,4.32419837185666,-17.7633910094363,-33.4079562248476,-3.03133850675612,69.0470191074914,-15.7519020024979,-21.2000427770334,6.7011508743272
4.46170696620302,-13.7630280479971,-35.2082958425028,4.36952868823323,-17.8027929323038,-33.4187321395739,-3.03439844968734,69.0644630501649,-15.5436516822579,-21.7345247562735,7.09285587619541
4.80745932384295,-13.7738212792634,-35.2045345089111,4.41200541247642,-17.8365565484785,-33.4399703814116,-3.03605771636525,69.0880939426784,-15.3295707544074,-22.2781919250967,7.47895501665979
5.14436104181784,-13.7891096734182,-35.1966980149438,4.45110351000179,-17.8638170503989,-33.4716270018979,-3.0362879148817,69.1176324787388,-15.1100697768782,-22.8255936542277,7.85386709030784
5.46893426935334,-13.8091535848509,-35.184401379922,4.48633803160642,-17.883730005116,-33.513415050591,-3.03506181457304,69.1526130093578,-14.8855281326068,-23.3712429077062,8.21219430280276
5.77776428099735,-13.8341559702661,-35.1672862758984,4.51727333486626,-17.8954805466573,-33.564795257517,-3.03235050663814,69.1923751443365,-14.6562950106465,-23.9097306576492,8.54886490354687
6.06755244882573,-13.8642547689299,-35.145025845077,4.54353134332788,-17.8982925894711,-33.6249723630082,-3.02812108924431,69.2360586151011,-14.4226923599763,-24.4358314159054,8.85926180606438
6.33516989564541,-13.8995161355436,-35.1173286183231,4.56479865740836,-17.8914380972341,-33.6928973923188,-3.02233506381476,69.2826016705421,-14.1850194231012,-24.9445978879619,9.13933294862392
6.57771094375111,-13.9399286994983,-35.0839414785472,4.58083235637984,-17.8742464030477,-33.7672759895477,-3.01494755489449,69.3307432000747,-13.9435584314551,-25.4314437975132,9.38568034790878
6.79254552552939,-13.985399004913,-35.0446516709189,4.59146435328123,-17.8461135160105,-33.8465827382591,-3.00590737366811,69.3790286884792,-13.6985810604162,-25.8922148052702,9.5956260360304
6.97736978592209,-14.0357482670033,-34.9992879136721,4.59660418519194,-17.8065112752798,-33.9290812120194,-2.99515784796124,69.4258200090135,-13.4503552889545,-26.3232480727941,9.76725426301815
7.13025418604447,-14.0907105626526,-34.9477207031549,4.59624014450792,-17.7549961413718,-34.0128493222963,-2.98263825671393,69.4693089613637,-13.199152372353,-26.7214213509562,9.89943042152683
7.2496885130762,-14.1499325555767,-34.8898619321292,4.59043868751215,-17.6912173606551,-34.0958093693754,-2.96828565024544,69.5075343662473,-12.9452537005653,-27.0841925026713,9.9917980597084
7.33462331238431,-14.2129748375476,-34.8256639511337,4.57934209683495,-17.6149242122593,-34.1757620608272,-2.95203681763364,69.538402443487,-12.6889573681317,-27.4096301563103,10.044756070648
7.38450737917157,-14.2793149449193,-34.7551182012288,4.5631644223381,-17.5259720473691,-34.2504236494643,-2.9338301773787,69.5597101269792,-12.430584319341,-27.6964358221248,10.0594186768554
7.39932107007108,-14.3483520822429,-34.6782535369329,4.54218577504477,-17.4243268515275,-34.3174652659938,-2.91360740808881,69.5691709099752,-12.1704839562316,-27.943957397548,10.0375611680144
7.37960530504685,-14.419413550197,-34.5951343460298,4.51674509593897,-17.3100680930583,-34.3745534840093,-2.89131469260809,69.5644427701403,-11.9090391123575,-28.1521936444868,9.98155450943522
7.32648620207951,-14.4917628323075,-34.5058585621092,4.48723156476025,-17.1833896632222,-34.4193911536926,-2.86690351507761,69.5431576970544,-11.6466703067544,-28.3217890147331,9.89429192801056
7.24169528202218,-14.5646092446443,-34.4105556571274,4.45407485502935,-17.0445987685579,-34.4497575684437,-2.84033101919601,69.5029523325356,-11.3838392016796,-28.4540181402725,9.77911040374611
7.12758503735425,-14.6371189973708,-34.3093846938171,4.41773448097798,-16.8941127031567,-34.4635470784982,-2.81155999770757,69.4414992316802,-11.121051192452,-28.5507593647549,9.63970965430871
6.98713928398826,-14.7084274604226,-34.2025325092531,4.37868851807006,-16.7324535051433,-34.4588053334605,-2.78055862825519,69.3565382562172,-10.8588570547915,-28.6144568488023,9.48007073573722
6.82397697756168,-14.7776523731083,-34.0902120876351,4.3374220086623,-16.5602405832829,-34.4337624215972,-2.74730009554369,69.245907620544,-10.5978535634313,-28.6480710358189,9.30437586642265
6.64234690019101,-14.8439076963776,-33.9726611578833,4.29441538453352,-16.3781814810586,-34.3868622798252,-2.71176224679638,69.1075741251235,-10.33868297851,-28.6550176098674,9.1169305864514
6.44710861230643,-14.9063177836328,-33.8501410184613,4.25013324462672,-16.1870610188276,-34.3167878740163,-2.67392742033149,68.9396621318386,-10.0820312793333,-28.6390954784604,8.92208893713852
6.24369216440416,-14.9640315433438,-33.7229355523931,4.20501381771678,-15.9877291119749,-34.2224817872062,-2.63378256792272,68.7404808598883,-9.82862501528,-28.6044047359047,8.72418201472504
6.03802533533583,-15.016236280538,-33.591350358163,4.15945941764454,-15.7810876013224,-34.1031619911222,-2.59131976349901,68.50854960741,-9.57922664736412,-28.5552560130999,8.52745004913501
5.83641319576622,-15.0621709279594,-33.4557118943362,4.11382816552292,-15.5680764542424,-33.9583327027267,-2.54653715894526,68.2426205350089,-9.33462827609928,-28.4960731364444,8.33597811731065
5.64535216639836,-15.1011384060734,-33.3163665209687,4.06842720846352,-15.3496597056703,-33.7877903358284,-2.49944041652641,67.9416986871379,-9.09564369253525,-28.4312916015739,8.15363572796513
5.47126242167946,-15.1325168818082,-33.1736793212605,4.02350760654849,-15.1268115082943,-33.5916246458476,-2.45004461590419,67.6050589774487,-8.86309874687479,-28.3652559189417,7.98402076017936
5.32013258767943,-15.1557697284531,-33.0280326044002,3.97926099084964,-14.9005026455406,-33.37021523283,-2.39837659640173,67.2322599202775,-8.63782010120603,-28.3021192644623,7.83040850796753
5.19709255330552,-15.1704540226585,-32.8798240245633,3.93581802091288,-14.6716878237028,-33.1242236156412,-2.34447764933844,66.8231539454196,-8.42062251925932,-28.2457489893959,7.69570678945334
5.1059624499782,-15.1762274466046,-32.7294642953969,3.89324859726329,-14.4412940023843,-32.8545811254267,-2.28840642782403,66.3778941843117,-8.21229494083912,-28.1996414169157,7.58241817302458
5.04885802763828,-15.1728534914618,-32.5773745241342,3.85156371953861,-14.2102099558844,-32.5624728985894,-2.23024190677789,65.8969376636032,-8.01358567768173,-28.1668490211655,7.49261033793835
5.02594608212986,-15.1602048821246,-32.4239832261894,3.81071882841137,-13.9792771928739,-32.2493182865642,-2.17008621445527,65.3810448866861,-7.82518713913877,-28.1499225880679,7.42789542807651
5.03542178826338,-15.1382651659892,-32.2697231056637,3.77061843096208,-13.7492823002679,-31.9167480435663,-2.10806716639363,64.8312758225518,-7.6477205497878,-28.1508703221527,7.38941898672192
5.07372395056782,-15.1071284340714,-32.1150276998876,3.73112178334264,-13.5209507183139,-31.5665786999639,-2.04434035395714,64.2489823520482,-7.48172115959078,-28.1711351061716,7.37785869138366
5.13593833286557,-15.0669971732473,-31.9603279896327,3.69204938927452,-13.2949419013379,-31.2007845701972,-1.97909066592825,63.6357972431088,-7.32762446351736,-28.2115902701768,7.39343267110687
5.21629539156341,-15.0181782848436,-31.8060490732045,3.65319006619645,-13.071845780398,-30.821467874918,-1.91253315166804,62.9936197391746,-7.18575392973948,-28.2725533504116,7.43591674591997
5.30866393562811,-14.9610773479599,-31.6526069910718,3.61430833180222,-12.8521804249033,-30.4308274799297,-1.84491316835974,62.3245978533529,-7.05631068442727,-28.353816507605,7.50466956289004
5.40696940300199,-14.8961912544459,-31.5004057647544,3.57515187394676,-12.6363907984719,-30.0311267779477,-1.77650579161618,61.6311074733786,-6.93936553380202,-28.4546916142332,7.59866439124727
5.50550402631925,-14.824099391003,-31.3498346800308,3.53545888927841,-12.4248485146974,-29.6246612675152,-1.70761450517837,60.9157284068184,-6.83485363811728,-28.5740675645956,7.71652631283055
5.59912831239911,-14.7454535844614,-31.2012658081097,3.49496511011266,-12.2178525145336,-29.2137264110124,-1.63856921582453,60.181217535783,-6.74257209243652,-28.7104771180337,7.85657367011088
5.6833816465687,-14.6609670527803,-31.0550517305671,3.45341038046399,-12.0156306022538,-28.8005863695417,-1.56972365823245,59.4304793052532,-6.66218060881193,-28.8621705150203,8.01686282039655
5.75452580594888,-14.5714026156097,-30.9115234222332,3.41054468540393,-11.8183417865687,-28.3874442076898,-1.50145226062945,58.6665338348779,-6.59320542416783,-29.0271931478699,8.19523539142483
5.80954352514384,-14.4775604178048,-30.7709882516033,3.36613357805394,-11.6260793752915,-27.9764141322417,-1.4341465394774,57.8924830147131,-6.53504647049951,-29.2034646849809,8.38936729567601
5.84610946202441,-14.3802654116278,-30.633728076755,3.31996298114996,-11.4388747668073,-27.5694962753901,-1.36821108272259,57.1114750153664,-6.48698773657933,-29.3888572441006,8.5968187693446
5.86254574028428,-14.2803548315439,-30.4999974404786,3.27184336356861,-11.2567018724064,-27.1685544561592,-1.30405916613672,56.3266677083736,-6.44821062950482,-29.5812704990424,8.81508471592476
5.85776994766108,-14.178665881369,-30.3700218952281,3.22161330778861,-11.0794820925179,-26.775297258749,-1.24210802790761,55.5411915509308,-6.41781002490421,-29.7787019539007,9.0416446719431
5.83124035005749,-14.0760238389424,-30.2439965105436,3.16914249293648,-10.9070897570267,-26.3912626623928,-1.18277380926643,54.7581125397081,-6.39481259110501,-29.9793109450319,9.2740117325528
5.78290101322168,-13.9732307697006,-30.1220846285957,3.11433411958904,-10.7393579243504,-26.0178063532265,-1.12646616158878,53.980395879881,-6.37819689165825,-30.1814751492163,9.50977971878365
5.71312824451208,-13.8710550261027,-30.0044169365854,3.05712679794995,-10.5760844163861,-25.6560937500132,-1.07358252823572,53.2108710418587,-6.36691471237284,-30.3838384563169,9.74666770790651
5.62267902577956,-13.7702216910579,-29.8910909199899,2.99749591308583,-10.4170379504783,-25.3070956843777,-1.02450213138544,52.452198881993,-6.35991302069069,-30.5853490518169,9.98256081565742
5.51264170827346,-13.6714040977926,-29.7821707511276,2.93545447090053,-10.2619642204018,-24.9715875933044,-0.979579723711548,51.7068414825611,-6.35615593990414,-30.7852865604704,10.2155459208335
5.38438904460359,-13.5752165273666,-29.6776876554723,2.871053415864,-10.1105917791696,-24.6501520084364,-0.939139195776062,50.9770353236718,-6.35464609868317,-30.9832772526717,10.4439410024058
5.23953355184313,-13.4822081512558,-29.5776407850201,2.80438139791556,-9.96263758710136,-24.3431840646455,-0.903467160851271,50.2647683379139,-6.35444469422597,-31.1792966673495,10.6663169963511
5.0798851785964,-13.392858251542,-29.4819986148783,2.73556395843242,-9.81781210835842,-24.0508996996789,-0.872806671319079,49.5717613181031,-6.35468959501185,-31.3736595194797,10.881511535007
4.90741125461716,-13.3075727164416,-29.3907008662481,2.66476211178851,-9.67582386809103,-23.7733461765692,-0.847351255251068,48.8994540511319,-6.3546108269368,-31.5669973577078,11.088634505373
4.72419871588929,-13.2266817772366,-29.3036609452746,2.59217032081773,-9.53638341847419,-23.5104145300651,-0.827239493107578,48.2489964392943,-6.35354285487398,-31.7602250536018,11.2870659548695
4.53241861104349,-13.1504389280394,-29.2207688719656,2.51801389228036,-9.3992066989838,-23.2618535182333,-0.812550371764858,47.6212447463084,-6.35093320171582,-31.9544977752024,11.4764473764181
4.33429290152281,-13.0790209545952,-29.1418946552621,2.44254584110623,-9.26401780612987,-23.0272846541826,-0.803299647370394,47.0167629709101,-6.34634713611151,-32.1511605363789,11.6566677040689
4.13206356553835,-13.0125289921106,-29.0668920476031,2.36604328823786,-9.1305512056858,-22.8062179048575,-0.799437422268652,46.4358292108441,-6.33946838867387,-32.3516926373659,11.82784538402
3.92796400327084,-12.9509905316298,-28.9956025859428,2.28880347384899,-8.99855342867301,-22.5980676728274,-0.800847105476917,45.87844674069,-6.33009608865413,-32.5576493057201,11.9903076969385
3.72419271708867,-12.8943622947386,-28.9278598027811,2.21113948976698,-8.86778429945447,-22.4021687140747,-0.807345888212107,45.3443593970274,-6.31813830889588,-32.7706026899478,12.1445682184791
3.52288920505329,-12.8425338934372,-28.8634934779875,2.13337585599541,-8.73801775809825,-22.2177916809004,-0.818686824125763,44.8330707546919,-6.30360273891107,-32.9920841745105,12.2913030413084
3.32611195840805,-12.7953321854992,-28.8023338011519,2.05584407556237,-8.60904236007602,-22.0441580140017,-0.834562553790719,44.3438664969522,-6.28658506810035,-33.2235298561504,12.4313262108966
3.13581839529644,-12.7525262280616,-28.7442153193947,1.97887829256245,-8.48066155613571,-21.8804539492925,-0.854610653667963,43.8758393328043,-6.26725566570485,-33.4662309359792,12.5655647449634
2.95384649825008,-12.713832726549,-28.6889805519144,1.90281115057042,-8.35269386204929,-21.7258434591773,-0.878420523800902,43.4279157910924,-6.24584511431487,-33.7212906633394,12.6950335704231
2.7818978631307,-12.6789218742614,-28.6364831591715,1.82796990871102,-8.22497301274447,-21.57948001251,-0.905541658770181,42.9988842120966,-6.22262911460866,-33.9895892487836,12.8208106921127
2.62152183358056,-12.6474234810052,-28.586590563068,1.75467282885816,-8.09734815583461,-21.4405171034915,-0.935493075704198,42.5874232507791,-6.19791324303968,-34.2717578326219,12.9440129088892
2.47410042208519,-12.6189332962542,-28.5391859272718,1.68322580787812,-7.96968408329389,-21.3081175565053,-0.967773606414958,42.1921302005084,-6.17201800351814,-34.5681621816967,13.0657724258798
2.3408338519301,-12.5930194405197,-28.4941694267952,1.61391920147202,-7.84186144323364,-21.1814616530861,-1.00187270718221,41.8115484532806,-6.14526455221015,-34.8788963267279,13.1872147594656
2.22272683684367,-12.5692288648529,-28.4514587633252,1.54702477801117,-7.71377683349169,-21.0597541471326,-1.03728140902069,41.4441934471731,-6.1179613900141,-35.2037858783888,13.3094383504858
2.12057615769633,-12.5470937626443,-28.4109889124506,1.48279275466024,-7.58534266388813,-20.942230240408,-1.07350302688379,41.0885765201704,-6.09039223289002,-35.5424003042161,13.433496251763
2.03496063195009,-12.5261378631319,-28.3727111134847,1.42144890010692,-7.45648668384441,-20.8281605903348,-1.11006326300722,40.7432261856744,-6.06280521509749,-35.8940730406066,13.5603801318027
1.96623502197522,-12.505882544591,-28.3365911291106,1.36319172955849,-7.32715110172942,-20.7168554214226,-1.1465193683188,40.4067064579079,-6.03540356558381,-36.2579279831797,13.6910066745007
1.91452951785975,-12.4858527155547,-28.3026068146677,1.30818985948384,-7.1972912675556,-20.607667811109,-1.18246805888007,40.0776319789204,-6.00833791417026,-36.6329106729207,13.826206316312
1.87975590388744,-12.4655824203588,-28.2707450522695,1.25657962482282,-7.06687394915492,-20.499996218548,-1.21755191724009,39.7546798353957,-5.98170041849471,-37.0178223945793,13.9667141888421
1.86162033385699,-12.4446201279497,-28.2409981254831,1.20846308304271,-6.93587530083762,-20.3932863212182,-1.25146404072272,39.4365981075662,-5.95552094307182,-37.4113554295641,14.1131631193371
1.85964111827078,-12.4225336613187,-28.2133596319104,1.16390653143042,-6.80427869534086,-20.2870322238543,-1.2839507352682,39.1222113616542,-5.92976554929146,-37.8121278452432,14.2660785500008
1.87316868127801,-12.3989147225902,-28.1878200492106,1.1229396462303,-6.67207265202275,-20.1807771120394,-1.31481210588001,38.8104234682641,-5.90433754264805,-38.2187164344735,14.4258752471072
1.90140447072332,-12.3733829678542,-28.1643620871905,1.08555532238552,-6.53924913385966,-20.0741134370564,-1.34390047661138,38.500218282839,-5.87908124950142,-38.6296867083174,14.5928556817511
1.94341629995669,-12.3455895861981,-28.1429559822619,1.05171026140707,-6.40580249409608,-19.9666827309165,-1.37111669385065,38.1906588425986,-5.85378855780354,-39.0436191457958,14.7672099798712
1.99814903700944,-12.3152203392533,-28.123554925186,1.02132632889608,-6.27172932483659,-19.8581751534073,-1.39640452415296,37.8808858049582,-5.82820807434995,-39.4591311845129,14.9490173569376
2.06443109659851,-12.2819980233062,-28.1060908538142,0.994292682181019,-6.13702939116285,-19.7483288657761,-1.41974353270434,37.5701158695673,-5.80205655978371,-39.8748946892697,15.1382489642631
2.14097826598912,-12.2456843279109,-28.0904708771023,0.970468647858598,-6.00170772929972,-19.6369293135499,-1.44114098857092,37.2576408900071,-5.77503213476978,-40.2896488674513,15.3347720719956
2.22639677179974,-12.2060810829267,-28.0765746098087,0.949687304311734,-5.86577786150116,-19.5238084924599,-1.46062345588906,36.942828299332,-5.74682862400151,-40.7022088060911,15.5383554950208
2.31918727561913,-12.1630309081194,-28.0642526770613,0.931759693644334,-5.72926595762025,-19.4088442748513,-1.47822877415969,36.6251233616855,-5.71715032176918,-41.1114699737481,15.7486761325847
2.41775095031108,-12.1164173038176,-28.053326592637,0.916479551827155,-5.59221567696713,-19.2919598915989,-1.49399909570904,36.3040536384833,-5.68572642349226,-41.5164091535269,15.9653264454937
2.52039820851625,-12.0661642455207,-28.043590134599,0.903628409020992,-5.454693369249,-19.1731236882707,-1.50797553406425,35.9792359336227,-5.65232437701396,-41.9160823576278,16.187822648282
2.62536019879885,-12.0122353676596,-28.0348122524766,0.892980881117993,-5.31679330417017,-19.0523492893845,-1.52019479557635,35.6503858585131,-5.61676147452249,-42.309620331845,16.4156133634159
2.73080290925328,-11.9546328402177,-28.0267414535049,0.884309956408598,-5.17864262808162,-18.9296962985363,-1.53068794380283,35.3173300275811,-5.57891413558672,-42.6962222975259,16.6480884797205
2.83484360506803,-11.8933960560735,-28.0191115373115,0.87739208135085,-5.04040579651161,-18.8052716300232,-1.53948121490321,34.9800207497898,-5.5387245155375,-43.0751485952085,16.884587976776
