Finger Velocity,Scap_X,Scap_Y,Scap_Z,Shoulder horiz abd-adduction,Shoulder flexion-extension,Shoulder internal-external rotation,elbow flexion-extension,forearm pronation-supination,wrist flexion-extension,wrist radial-ulnar deviation
1.13615889378613,-16.2178167314086,-40.3020465679167,2.69939012483291,-29.0322626611348,-32.1899243736042,-17.6021251113603,76.8498657673055,-22.6082681558897,-13.43015168789,3.05128688635344
1.41499180517964,-16.2375693161574,-40.2630643111247,2.69619102608821,-29.0572702066273,-32.2245345083731,-17.5888337101901,76.8445322833409,-22.5976481337321,-13.3787786618727,3.00764979838758
1.70998005649142,-16.2622003639715,-40.2192816494101,2.69001490095174,-29.0770479645435,-32.2604033189357,-17.5684511235649,76.8366290077907,-22.5703371345329,-13.3221966500474,2.94852578010949
2.01853702709355,-16.2919450803013,-40.1706244397004,2.68046103472857,-29.089855451126,-32.2968497257961,-17.5400499270206,76.8253905222058,-22.5242931657074,-13.2610314801627,2.87284063015061
2.3379660840531,-16.326963120048,-40.117063100602,2.6671416735326,-29.0938272039365,-32.3330879462207,-17.5026929596546,76.8099463906131,-22.457579759422,-13.1961415193705,2.77973621289021
2.66542703648701,-16.367328434776,-40.0586105395963,2.64968952600094,-29.0869932922466,-32.3682332393191,-17.455444928873,76.7893182917891,-22.3684120150465,-13.1286382811921,2.66861130357419
2.99794533205119,-16.4130203437615,-39.9953186444281,2.62776518263304,-29.0673041521316,-32.4013098685105,-17.3973850976261,76.7624187192258,-22.2552027341063,-13.0599037908403,2.53915945877497
3.33244205900144,-16.4639161239303,-39.927273533021,2.60106428631333,-29.0326596580154,-32.4312610309014,-17.327620996445,76.7280515485655,-22.1166074218201,-12.991602896069,2.39140212526006
3.66577548611396,-16.5197853847496,-39.8545898601604,2.56932428077701,-28.9809421957574,-32.4569604172595,-17.2453030509208,76.6849147746648,-21.9515668192719,-12.9256884908899,2.22571508260925
3.99478949328066,-16.580286464185,-39.7774045441363,2.53233055099249,-28.9100533408285,-32.4772250278501,-17.1496399720478,76.6316057114878,-21.7593455371356,-12.8643975141236,2.04284628044082
4.31636608535247,-16.6449650494546,-39.6958702902063,2.48992175620005,-28.8179535790128,-32.4908288877565,-17.0399147293058,76.5666289271141,-21.5395652950373,-12.8102356362669,1.843923210951
4.62747996302054,-16.7132551836359,-39.6101492647232,2.44199415343034,-28.7027043441294,-32.49651736413,-16.9155009055343,76.4884071519874,-21.2922312458458,-12.7659487953155,1.63044817996026
4.92525347461593,-16.7844827598681,-39.5204072369607,2.38850472473729,-28.562511492893,-32.4930218628123,-16.7758792037708,76.395295349016,-21.0177499035812,-12.7344802154765,1.40428022427247
5.20701044131176,-16.857871529897,-39.4268084658035,2.32947295572533,-28.3957691983,-32.4790747582652,-16.6206538308424,76.2855980664829,-20.7169373206001,-12.7189122561153,1.16760297775694
5.47032744190282,-16.9325515700151,-39.3295115638442,2.26498116121633,-28.2011031299068,-32.4534244819898,-16.4495684200206,76.1575901040013,-20.3910163911422,-12.7223933770578,0.922878508044502
5.71308120998903,-17.0075700648205,-39.2286665170101,2.19517330885342,-27.9774117121711,-32.4148507543807,-16.2625210800172,76.0095404013281,-20.041602501693,-12.7480516201973,0.672788008220237
5.9334908580284,-17.081904197317,-39.1244129707976,2.12025234682174,-27.7239042174041,-32.3621799875421,-16.0595780794294,75.8397389067539,-19.6706772024651,-12.7988972202112,0.420161189487043
6.13015370936018,-17.154475878446,-39.0168798166435,2.04047609459677,-27.4401344601876,-32.2943009092498,-15.8409856071153,75.6465260040859,-19.2805501234624,-12.8777181816197,0.167897208989018
6.30207359526457,-17.2241680101117,-38.9061860309351,1.95615180448732,-27.1260289139513,-32.2101804607288,-15.6071790020179,75.4283238964288,-18.8738099656369,-12.9869737893985,-0.0811191252301651
6.44868056140914,-17.2898419493529,-38.7924426429989,1.86762954472984,-26.7819081648851,-32.1088800035792,-15.3587888299185,75.1836691889281,-18.453266004351,-13.1286919111028,-0.32410143758213
6.56984102839664,-17.3503558229041,-38.6757556436821,1.77529459017895,-26.4085007517543,-31.9895718327135,-15.0966432063717,74.9112458020558,-18.0218820858511,-13.304376429153,-0.558441374379094
6.66585756780138,-17.4045833267324,-38.556229597921,1.67955903521038,-26.0069486127056,-31.8515559286814,-14.8217658288114,74.6099172857811,-17.5827055293599,-13.5149310735643,-0.781778995960834
6.73745759431806,-17.4514326317087,-38.4339716969804,1.58085286863463,-25.5788035711479,-31.6942767899844,-14.5353692871455,74.278757582888,-17.1387936432848,-13.7606052593016,-0.992059787723918
6.7857704471668,-17.4898650055549,-38.309095980564,1.47961477407315,-25.1260145371991,-31.5173400644621,-14.2388433690649,73.9170792927807,-16.6931407194692,-14.0409663268137,-1.18757502107918
6.81229255593743,-17.518912757873,-38.1817274731176,1.37628293868382,-24.6509053697403,-31.3205285589419,-13.9337382613964,73.5244585058409,-16.2486083859238,-14.3549009707751,-1.36698340687463
6.81884067948623,-17.5376961258163,-38.0520060053255,1.27128616213352,-24.1561436274047,-31.1038170688262,-13.6217427700827,73.1007553119498,-15.8078620732999,-14.7006467654062,-1.52931335187063
6.80749359716654,-17.5454387458062,-37.9200895235555,1.1650355512431,-23.6447007283921,-30.8673853576817,-13.3046579336665,72.6461291451661,-15.3733160788908,-15.0758526878823,-1.67394650601639
6.78052314489333,-17.541481398467,-37.7861567242328,1.05791706316711,-23.1198043341163,-30.6116285482184,-12.9843666748393,72.1610482270782,-14.9470892959901,-15.4776655621895,-1.80058455287417
6.74031614080496,-17.5252937620841,-37.6504088889231,0.950285123489517,-22.5848840629527,-30.3371641690949,-12.6628003968408,71.6462925281539,-14.5309731286328,-15.9028376017999,-1.90920225287895
6.68928953201072,-17.4964839579081,-37.5130708418212,0.842457496926946,-22.0435119134255,-30.0448351409929,-12.3419036540423,71.1029498809053,-14.1264124579362,-16.3478489261491,-1.99999052105625
6.62980197475248,-17.4548057172451,-37.3743910043232,0.734711529664986,-21.4993390103727,-29.7357080807836,-12.0235981791661,70.5324051388277,-13.7344998108901,-16.8090381939763,-2.07329375166342
6.56406594617642,-17.4001630487326,-37.2346405765328,0.627281819132941,-20.956030461722,-29.4110664511752,-11.7097476173239,69.9363225603336,-13.3559821690492,-17.282734371262,-2.12954567363027
6.49406523465745,-17.3326123379205,-37.0941119227492,0.520359305974631,-20.4172002108702,-29.0723982801637,-11.4021242998107,69.3166218825478,-12.99127921316,-17.7653830831458,-2.16920775595575
6.42148308453973,-17.2523618696928,-36.9531162676298,0.414091727628279,-19.886347779313,-28.7213784121033,-11.1023792956136,68.6754488109175,-12.6405112887125,-18.2536618659501,-2.19271363792986
6.34764619177891,-17.1597688218177,-36.8119808207349,0.308585323485861,-19.3667987115218,-28.3598455146181,-10.8120168108389,68.0151408672072,-12.3035350321299,-18.7445797801882,-2.20042231459841
6.27348901963584,-17.0553338281971,-36.67104544663,0.203907638674758,-18.8616503636529,-27.9897743291025,-10.5323737709934,67.3381896980593,-11.979984426673,-19.2355581323619,-2.1925819566453
6.19954149750971,-16.9396932501037,-36.5306589933894,0.100091239715515,-18.3737244329649,-27.6132438905361,-10.2646051329226,66.6472010413418,-11.6693150464842,-19.7244903834884,-2.1693053803442
6.1259412008728,-16.8136093259319,-36.3911753872322,-0.00286186619677403,-17.905527323252,-27.2324026321023,-10.0096751593661,65.9448535733024,-11.3708493667329,-20.2097806025871,-2.13055738758504
6.05246885503923,-16.6779584013664,-36.2529495939192,-0.104975323047008,-17.4592191011587,-26.8494314190222,-9.76835458308847,65.2338578168863,-11.0838212314067,-20.6903609583023,-2.07615352132321
5.97860382447656,-16.533717476504,-36.1163335363097,-0.206293233266561,-17.0365914395963,-26.4665056234861,-9.54122331743526,64.516916190347,-10.8074178424683,-21.1656896681229,-2.00576924872924
5.9035945089123,-16.3819493419693,-35.9816720427877,-0.306874858718997,-16.6390545924547,-26.0857573644792,-9.32867814916084,63.7966851323528,-10.5408179360151,-21.6357315261275,-1.91895818621438
5.82653753726248,-16.2237866053396,-35.8492988873179,-0.406789360513744,-16.2676331233099,-25.7092389982649,-9.13094467587961,63.07574007266,-10.2832251246918,-22.1009236101903,-1.81517769877667
5.74645943737651,-16.0604149261147,-35.7195329728906,-0.506110694478484,-15.9229698367109,-25.3388888622764,-8.94809261835111,62.3565438413873,-10.0338957053003,-22.5621290326773,-1.69382002838845
5.66239499752185,-15.8930557805107,-35.5926747071733,-0.604912762954229,-15.605337142792,-24.9765001546404,-8.78005354864043,61.6414189389059,-9.79216055711815,-23.0205816624226,-1.55424703409216
5.57345762719721,-15.722949068676,-35.4690026214003,-0.703264916744665,-15.3146549277353,-24.6236936833875,-8.62664003977039,60.9325239322768,-9.55744108198217,-23.4778246492309,-1.39582666394574
5.4788984131303,-15.5513358593258,-35.3487702893935,-0.801227894979487,-15.0505139032567,-24.2818950543256,-8.48756526894788,60.231834106133,-9.32925943679481,-23.9356453752426,-1.21796941657172
5.37815200432817,-15.37944154233,-35.2322036099059,-0.89885027825925,-14.8122033650051,-23.9523166963957,-8.36246219063601,59.5411263769514,-9.10724355087087,-24.3960091849122,-1.02016326550224
5.27086875890444,-15.2084596299936,-35.1194985170163,-0.996165510047579,-14.5987422988697,-23.6359449611208,-8.25090152406557,58.8619683844909,-8.89112758160033,-24.8609939365773,-0.802005784286781
5.15693363238375,-15.0395364144019,-35.0108191755925,-1.09318951614259,-14.4089128293048,-23.3335323892758,-8.15240795742417,58.1957116083821,-8.68074853661295,-25.3327270872091,-0.563232492758481
5.03647303968746,-14.8737566536779,-34.9062967018851,-1.18991892701619,-14.2412950953302,-23.0455951167333,-8.06647414554889,57.5434883222566,-8.47603979240925,-25.8133266725943,-0.303740715659471
4.90985138917158,-14.7121304276867,-34.806028429036,-1.28632988610937,-14.0943027567602,-22.772415287636,-7.99257225670905,56.9062121876896,-8.27702219765565,-26.3048471855416,-0.0236084838948867
4.77765920337275,-14.5555812771588,-34.7100777220981,-1.38237741032671,-13.9662184626697,-22.5140482479324,-7.93016299123151,56.2845822963663,-8.08379339790695,-26.8092310023593,0.276891792762287
4.64069475367159,-14.4049357215961,-34.6184743416129,-1.47799525785248,-13.8552287411999,-22.2703341998254,-7.87870213634592,55.6790904772609,-7.89651597902842,-27.3282656805206,0.597284989536027
4.4999409886867,-14.2609142407481,-34.5312153559159,-1.57309625354693,-13.7594578800912,-22.0409139072488,-7.83764483316218,55.0900316806565,-7.71540499639747,-27.8635471545455,0.93689022753698
4.35653926483241,-14.1241238007095,-34.4482666024242,-1.66757302313459,-13.6770004498547,-21.8252479567868,-7.80644781774863,54.5175172213314,-7.54071541190485,-28.4164485928315,1.29482293522257
4.21176102020592,-13.9950520068618,-34.369564690474,-1.76129909178469,-13.6059521707864,-21.6226390005798,-7.78456996518841,53.9614906058401,-7.37272987387449,-28.9880944454948,1.67000163402054
4.06697809403978,-13.8740629688384,-34.2950195205544,-1.8541303060093,-13.5444388438327,-21.4322563411613,-7.77147151598585,53.4217455880732,-7.21174713765037,-29.5793390141462,2.06115888016114
3.92363191071072,-13.7613949626957,-34.2245172691685,-1.94590653519187,-13.490643065834,-21.2531621679048,-7.76661239733667,52.8979460051589,-7.05807125420159,-30.1907487283353,2.46685563210204
3.78320125936652,-13.6571599681033,-34.1579237602868,-2.03645359877826,-13.442828449423,-21.0843387263048,-7.76945006391167,52.3896468600239,-6.91200148838902,-30.8225872641647,2.8854982316192
3.64716796956943,-13.5613451421714,-34.0950881201513,-2.12558535107825,-13.3993610824178,-20.9247156970448,-7.77943726711998,51.8963160565901,-6.77382281485074,-31.4748027290012,3.31535721880322
3.51697950226951,-13.4738162673122,-34.035846597661,-2.21310584561372,-13.3587280003814,-20.773197080369,-7.79602011057003,51.4173561728247,-6.64379681782641,-32.1470163747577,3.75458734190437
3.39400746692504,-13.3943231782637,-33.980026428822,-2.29881150217741,-13.3195525111953,-20.628686921832,-7.81863666100199,50.9521256808492,-6.52215290138749,-32.8385126832037,4.20124834257486
3.27950147699261,-13.3225071323089,-33.9274496262186,-2.38249321443064,-13.2806062956268,-20.4901132801854,-7.84671626952982,50.499959087837,-6.4090798677475,-33.5482311651911,4.65332635741821
3.17453867587001,-13.2579100385115,-33.8779365773888,-2.46393836080968,-13.2408182990329,-20.3564499280984,-7.87967964023986,50.0601855667447,-6.30471808886618,-34.2747607667933,5.1087560295739
3.07997071054298,-13.1999854116077,-33.8313093386169,-2.54293271117855,-13.1992805109334,-20.2267353864702,-7.91693958717893,49.6321457621154,-6.20915262828113,-35.0163382709534,5.56544360571828
2.99637171955341,-13.1481108697774,-33.7873945173844,-2.61926225043909,-13.1552507905483,-20.1000890128396,-7.95790236533752,49.215206584904,-6.12240773114789,-35.7708524124247,6.02129134186705
2.92399261386324,-13.1016019564194,-33.7460256509902,-2.69271496293405,-13.1081529342112,-19.9757239836776,-8.00196945375848,48.8087739428626,-6.04444307576062,-36.5358555101824,6.47422343190417
2.86272795153123,-13.0597270354903,-33.7070450097986,-2.76308263443227,-13.0575741967698,-19.8529571227584,-8.04853970194332,48.4123034796073,-5.97515207453242,-37.3085842118763,6.92221344131309
2.81210143524282,-13.0217229885102,-33.6703047784393,-2.83016273155148,-13.003260477764,-19.731215629322,-8.09701180424603,48.0253095043878,-5.91436235179354,-38.0859904098956,7.3633129375744
2.77127420183854,-12.9868114299302,-33.6356675952584,-2.89376041311445,-12.9451093690169,-19.6100408454506,-8.14678711859424,47.6473723711192,-5.86183834986352,-38.8647825872466,7.79568069762464
2.73907689147123,-12.954215155563,-33.6030064582807,-2.95369071523502,-12.8831612394599,-19.4890892664197,-8.1972728806737,47.278144595006,-5.8172858656095,-39.6414769422091,8.21761156074914
2.71406280881145,-12.9231745417343,-33.5722040328049,-3.0097809333993,-12.817588513856,-19.3681310394367,-8.24788587643826,46.9173559729139,-5.78035822506674,-40.4124567715672,8.62756371675992
2.69457639487888,-12.8929636145135,-33.5431514187728,-3.0618732026309,-12.7486832932498,-19.2470462201818,-8.29805662541161,46.5648179097601,-5.7506637673771,-41.1740378297853,9.02418302756873
2.67882956445192,-12.8629055060926,-33.5157464540938,-3.10982725199144,-12.6768434729479,-19.1258190697711,-8.34723410166588,46.2204270703826,-5.7277743134234,-41.9225367602893,9.40632293433462
2.6649785073263,-12.8323870114823,-33.4898916444282,-3.15352328263458,-12.6025575416315,-19.0045306821106,-8.39489098627049,45.8841684011518,-5.71123431314493,-42.6543392755545,9.77305865989173
2.65119498136757,-12.8008719572707,-33.4654918225514,-3.19286489275757,-12.5263882911496,-18.8833502373277,-8.44052940584765,45.5561175192192,-5.70057037881562,-43.3659646470582,10.1236947939485
2.63572828103076,-12.7679130983401,-33.4424516526973,-3.22778195407335,-12.4489557239667,-18.7625251841549,-8.48368706271392,45.2364424586986,-5.69530091341859,-44.0541233551935,10.4577658791614
2.61695628565617,-12.7331622707128,-33.4206731077389,-3.25823333671078,-12.370919504516,-18.6423706612698,-8.52394360194749,44.9254047857732,-5.69494554116215,-44.7157654446582,10.7750301777143
2.59342584654985,-12.696378551538,-33.4000530585373,-3.28420938143805,-12.2929613522773,-18.523258468943,-8.56092699742175,44.6233601302274,-5.6990340556331,-45.3481180984444,11.0754572812561
2.56388411982585,-12.6574342114799,-33.380481121497,-3.30573402510965,-12.2157678096985,-18.4056058941586,-8.59431968735109,44.3307582088866,-5.70711463095426,-45.9487119779893,11.3592105690324
2.52730337935211,-12.616318289002,-33.3618379074226,-3.32286649269174,-12.1400138299821,-18.2898646765827,-8.62386416528031,44.0481424249301,-5.71876109357235,-46.5153968002705,11.6266257068194
2.48290256208999,-12.5731376681995,-33.3439937993975,-3.33570247504868,-12.0663476145134,-18.1765103828113,-8.64936774203129,43.7761491151407,-5.73357912004244,-47.0463473705198,11.8781864325622
2.43016956216491,-12.5281156012956,-33.3268083607782,-3.34437471721536,-11.9953770884975,-18.0660324315862,-8.67070623415472,43.5155064913489,-5.75121129951696,-47.5400618826976,12.1144988201333
2.36888935980021,-12.481587683536,-33.3101304402148,-3.34905295081587,-11.927658341484,-17.9589249798046,-8.68782639387121,43.2670332917822,-5.77134106840395,-47.9953546973709,12.3362650855849
2.29918469932909,-12.4339953598875,-33.2937990028798,-3.34994311982199,-11.8636862840739,-17.8556788376801,-8.70074696265517,43.0316371321982,-5.79369558069005,-48.4113458789045,12.5442578588398
2.22157844583271,-12.3858771152776,-33.2776446792885,-3.34728587113491,-11.803887690417,-17.7567745349555,-8.70955829725667,42.8103125341222,-5.81804761734291,-48.7874494644242,12.739295746162
2.13709006593281,-12.3378575681006,-33.2614919885261,-3.34135430716248,-11.7486167144302,-17.662676612612,-8.71442057873361,42.6041386138863,-5.84421666314971,-49.1233618671079,12.9222209622289
2.04738256508235,-12.2906347463455,-33.2451621639248,-3.33245102190103,-11.6981528908316,-17.5738291679724,-8.7155606706231,42.4142764415249,-5.87206929107022,-49.4190512125746,13.0938797596798
1.9549789699163,-12.2449658747588,-33.2284764872091,-3.32090446207536,-11.6527015631035,-17.4906526360695,-8.71326774208464,42.241966115629,-5.90151899060413,-49.6747479501419,13.2551062684982
1.86356376063196,-12.2016520384688,-33.2112600215695,-3.30706467078293,-11.6123966207945,-17.4135417463562,-8.70788781685706,42.0885236357078,-5.93252555133402,-49.8909368062335,13.4067101759044
1.77836131818243,-12.1615221115961,-33.1933456245472,-3.29129848440753,-11.5773053783846,-17.3428645502238,-8.6998174512623,41.9553376729709,-5.96509406130911,-50.0683499826094,13.5494684779814
1.70651490061279,-12.1254163468967,-33.174578117506,-3.27398426544197,-11.5474353854381,-17.2789623713677,-8.68949678636041,41.8438663342876,-5.9992735087654,-50.2079613780894,13.6841213590945
1.65724801250609,-12.0941700151409,-33.1548184889537,-3.25550626520579,-11.5227429183815,-17.2221504910475,-8.67740225963531,41.7556339814788,-6.03515490227093,-50.3109815082978,13.8113721113858
1.64140996415496,-12.0685974637704,-33.1339480127334,-3.23624872260786,-11.5031428623647,-17.172719349267,-8.66403929432146,41.6922281152637,-6.07286876627024,-50.378852709788,13.9318908806247
1.67001936312448,-12.0494769370076,-33.1118721673746,-3.21658981868308,-11.4885196449821,-17.130936024907,-8.64993530211015,41.6552962695132,-6.11258183345462,-50.4132441314321,14.0463219023633
1.75199528247449,-12.0375364670013,-33.0885242477363,-3.1968956200403,-11.4787388358704,-17.0970457531411,-8.63563333234393,41.6465427959617,-6.15449274019664,-50.4160459261824,14.1552937664614
1.89222093717102,-12.0334411098437,-33.0638685632719,-3.17751415491418,-11.4736589858201,-17.0712732441421,-8.62168667417555,41.6677253585361,-6.19882653393808,-50.3893619628513,14.2594321194826
2.09120628269368,-12.0377817619358,-33.0379031193648,-3.15876977189901,-11.4731432557072,-17.0538235791142,-8.60865466248051,41.7206509033627,-6.24582782591462,-50.3355003000391,14.3593740910311
2.34635694707515,-12.0510657507708,-33.010661681075,-3.14095793428096,-11.4770703867361,-17.0448824751121,-8.59709984945748,41.8071708274667,-6.29575247740897,-50.2569606303436,14.4557836218116
2.65371953809806,-12.0737093500189,-32.9822151236842,-3.12434060283665,-11.4853445921892,-17.0446157282554,-8.58758658415911,41.9291750388302,-6.34885779735459,-50.1564179343456,14.5493667856628
3.00924297387332,-12.1060323229785,-32.9526719819273,-3.10914235585493,-11.4979040051962,-17.053167666908,-8.58068090229818,42.0885845861342,-6.40539134762493,-50.0367016922328,14.6408861403631
