Finger Velocity,Scap_X,Scap_Y,Scap_Z,Shoulder horiz abd-adduction,Shoulder flexion-extension,Shoulder internal-external rotation,elbow flexion-extension,forearm pronation-supination,wrist flexion-extension,wrist radial-ulnar deviation
0.573157457989554,-19.7957825228196,-22.6794574141585,15.5104195296159,-41.7000890639921,-36.1541462332059,-33.0555649887156,84.3925081712717,-36.042586272804,-94.765475468602,82.0103624894319
0.657791461718132,-19.7956665220759,-22.6469107900259,15.5234687014787,-41.7406553038281,-36.0472238465522,-33.0125602649717,84.4758464282821,-35.8894012714152,-94.6524642241958,81.8160303789831
0.805526339382539,-19.7917411363625,-22.6122140288334,15.5354384122761,-41.7689162834426,-35.9346842859487,-32.9631419381609,84.5616714693161,-35.7334423338401,-94.5116677750917,81.5884752713351
1.00930857913002,-19.7833118268636,-22.5752472282313,15.5461255099525,-41.7823927420581,-35.8170999071317,-32.906510406471,84.6490195945583,-35.5759969094608,-94.3427084831539,81.3279294604789
1.26068743126843,-19.7696459170902,-22.535886357641,15.5553353195127,-41.7785558941309,-35.6950637499904,-32.8417997195255,84.7367995017261,-35.4183256695387,-94.1457869707532,81.0353117526259
1.55324335487663,-19.7499790421841,-22.4940064177717,15.5628820259751,-41.754860704122,-35.5691787538316,-32.7680858583629,84.8238004573122,-35.2616365100125,-93.9217147718286,80.7122521179149
1.88246516364669,-19.7235228040271,-22.4494850026468,15.5685884402981,-41.7087805944633,-35.4400476479698,-32.6843977493475,84.9087028454193,-35.1070611594295,-93.6719242514999,80.3610911628126
2.24497283413686,-19.6894735972117,-22.4022060859044,15.5722852303008,-41.6378428901442,-35.3082637308374,-32.5897308019469,84.9900909070061,-34.955635192533,-93.3984522770685,79.9848509653624
2.63792825720863,-19.6470225292489,-22.3520638373184,15.5738097461158,-41.5396642824242,-35.1744026425224,-32.4830626064497,85.0664674205569,-34.8082820026295,-93.1038955148811,79.5871752590979
3.0586827808605,-19.5953663130859,-22.2989662777837,15.5730046124775,-41.4119855948204,-35.0390151324851,-32.3633702989534,85.1362700278363,-34.6658010103053,-92.7913371798643,79.1722389756798
3.50458181156366,-19.5337189621843,-22.2428385998793,15.5697162915825,-41.252705153563,-34.9026207565979,-32.2296490160845,85.1978888758253,-34.5288601340786,-92.4642474597489,78.7446296451604
3.97286232012619,-19.4613240699478,-22.1836260108862,15.5637938364516,-41.0599101013873,-34.7657024253021,-32.0809308336891,85.2496852240161,-34.3979923583652,-92.1263623377905,78.3092057562774
4.46060492116813,-19.3774674096612,-22.1212959898776,15.5550880539579,-40.831905046763,-34.6287017560467,-31.9163036051137,85.2900106484407,-34.2735961077177,-91.7815476794174,77.8709394125819
4.96471898988361,-19.2814895523044,-22.0558398872929,15.5434512774368,-40.5672375082681,-34.4920152297687,-31.7349291648224,85.3172264569438,-34.1559390536476,-91.4336568353604,77.4347520817065
5.48194864537401,-19.1727981706776,-21.9872738340315,15.5287379098051,-40.2647196927344,-34.3559911914576,-31.5360604219143,85.3297229180861,-34.0451649249083,-91.0863904644167,77.0053527423383
6.00889246716828,-19.0508796811907,-21.9156389673055,15.5108058399344,-39.923446230771,-34.2209277582045,-31.3190569202794,85.3259379062806,-33.9413028564108,-90.743166824061,76.5870873131114
6.54203252273247,-18.9153098711019,-21.841001019572,15.4895187613219,-39.5428075778828,-34.0870716987463,-31.0833984766615,85.3043745844001,-33.8442787910344,-90.4070095799882,76.1838070555466
7.07776976504479,-18.765763170479,-21.7634493497071,15.464749340525,-39.122498872171,-33.9546183256346,-30.8286965254021,85.2636177852277,-33.7539284395433,-90.0804584613691,75.7987618933526
7.61246368736382,-18.6020202559737,-21.6830955173497,15.4363831047428,-38.6625241268912,-33.8237124007554,-30.5547028161968,85.2023488149997,-33.6700113080511,-89.765506071078,75.4345225242195
8.14247460025921,-18.4239737182131,-21.6000715100194,15.4043228551474,-38.1631957347782,-33.6944500060438,-30.2613151520875,85.1193584804635,-33.5922253210721,-89.4635620965299,75.0929330747474
8.66420718533228,-18.2316315850246,-21.514527729291,15.3684933718503,-37.6251293699603,-33.5668812827176,-29.948579932094,85.0135582233719,-33.5202215967147,-89.1754442838829,74.7750940977769
9.17415416848342,-18.0251185651711,-21.4266308303417,15.3288461565393,-37.0492344845198,-33.4410139057138,-29.6166913746185,84.8839893204999,-33.4536189643123,-88.9013939942346,74.4813740912063
9.66893909144973,-17.8046749564658,-21.3365614935478,15.2853639532241,-36.4367006993135,-33.3168171469575,-29.2659874317088,84.7298301653671,-33.3920178543418,-88.6411130329886,74.2114464973656
10.1453572705941,-17.5706532424892,-21.2445121921651,15.2380647898509,-35.7889804697128,-33.1942263899658,-28.8969425401601,84.5504016864102,-33.3350132335413,-88.393817749213,73.9643483262467
10.6004141315379,-17.3235124783372,-21.1506850079536,15.1870052918894,-35.1077684577178,-33.0731479706489,-28.5101574724143,84.3451709748776,-33.2822062943882,-88.1583061054778,73.7385560916847
11.0313602052545,-17.0638106335106,-21.0552895344959,15.1322830357069,-34.3949780663751,-32.9534642184498,-28.1063466393947,84.113753197971,-33.2332146331911,-87.9330334394757,73.5320745789335
11.4357221696657,-16.7921951169356,-20.9585408931116,15.0740377382091,-33.6527156049532,-32.835038558935,-27.6863232634345,83.8559118667322,-33.1876806780103,-87.7161928703779,73.3425339828294
11.8113294221338,-16.5093917553344,-20.8606578691419,15.0124511225263,-32.8832525670782,-32.7177205250313,-27.2509828891927,83.5715575230858,-33.1452781750671,-87.5057966581583,73.1672911050466
12.1563357725415,-16.2161925322792,-20.7618611606534,14.9477453584119,-32.0889965237046,-32.6013505173364,-26.801285735431,83.2607449126525,-33.1057166172514,-87.2997552859237,73.0035305915997
12.4692359530287,-15.9134424197917,-20.6623717217853,14.8801800478731,-31.2724611554485,-32.4857641557249,-26.3382384091306,82.9236687204301,-33.0687435953225,-87.0959516479889,72.8483626991371
12.7488767474839,-15.6020256447237,-20.5624091819544,14.8100478038332,-30.4362359661389,-32.3707960747883,-25.8628755049907,82.5606579614897,-33.0341451610862,-86.8923084957385,72.6989148097238
12.9944626499032,-15.2828517279504,-20.4621903300643,14.7376685421246,-29.5829562201253,-32.2562830365785,-25.376241599351,82.1721691322422,-33.0017444003598,-86.6868480971341,72.5524147273296
13.205556063941,-14.9568416182884,-20.3619276673424,14.6633826671688,-28.7152736210052,-32.1420662674328,-24.8793741205883,81.7587782329501,-32.9713985091381,-86.4777437040237,72.4062644688172
13.3820721546448,-14.6249142184208,-20.2618280488547,14.5875433775142,-27.8358281985884,-32.0279929690683,-24.3732875400772,81.3211717649023,-32.9429947372001,-86.2633627661728,72.2581036836671
13.5242685558751,-14.2879735696375,-20.1620914461399,14.5105083522283,-26.9472218027562,-31.9139170015984,-23.8589592803022,80.860136787501,-32.9164456003336,-86.0423019117618,72.1058620402717
13.6327302218375,-13.9468969283578,-20.0629098673161,14.4326311075296,-26.051993529202,-31.7996987805511,-23.3373176807702,80.3765500979119,-32.8916837601463,-85.8134136642497,71.9478000328129
13.7083497873286,-13.6025239325764,-19.9644664662541,14.3542523367998,-25.152597331331,-31.6852044641601,-22.8092322974163,79.8713665759464,-32.868656928638,-85.5758248125358,71.7825378019976
13.7523038678236,-13.2556470212358,-19.8669348618763,14.2756915633689,-24.2513820086061,-31.570304525581,-22.275506734429,79.3456067236139,-32.8473230789451,-85.3289463627142,71.6090717737503
13.7660257868252,-12.9070032326611,-19.7704786750061,14.1972394381144,-23.3505737053759,-31.4548718066554,-21.7368741158965,78.8003434236115,-32.8276461456121,-85.0724750950049,71.4267792072012
13.7511752636546,-12.5572674682409,-19.6752512754386,14.1191509974301,-22.4522610045572,-31.3387791385498,-21.1939951980162,78.2366879440933,-32.8095922920327,-84.8063869268347,71.2354110917034
13.7096056301062,-12.2070472654017,-19.5813957184837,14.0416401604963,-21.558382655576,-31.221896592915,-20.6474590066982,77.6557752289525,-32.7931267233944,-84.530922526639,71.0350742122209
13.643329169371,-11.8568790822276,-19.4890448403023,13.9648756924418,-20.6707179371164,-31.1040884018701,-20.0977857769817,77.0587485356972,-32.7782109464037,-84.2465658974866,70.8262035671325
13.5544811858484,-11.5072260574389,-19.3983214749235,13.888978798518,-19.7908796267985,-30.985209576182,-19.5454318959724,76.4467435200848,-32.7648003437562,-83.9540169046807,70.6095266195958
13.4452834205607,-11.1584771758715,-19.3093387511242,13.8140224485984,-18.9203095310036,-30.865102283552,-18.9907965304592,75.820871917847,-32.7528419584038,-83.6541589146673,70.3860210580465
13.3180074245664,-10.8109477428317,-19.222200423232,13.7400324635566,-18.0602765095846,-30.7435921232754,-18.4342296487608,75.1822050314497,-32.7422724590399,-83.3480228332824,70.1568678341314
13.1749384927502,-10.4648810520907,-19.137001187043,13.6669903265752,-17.2118769044639,-30.6204845142546,-17.8760411928676,74.5317572831805,-32.7330163426328,-83.0367488950419,69.9234012637947
13.0183407432058,-10.1204511224404,-19.05382693185,13.5948376134806,-16.3760372497786,-30.4955614622799,-17.316511192376,73.8704701403388,-32.7249844836795,-82.7215475734553,69.687057942176
12.8504239034874,-9.77776637635214,-18.9727548832957,13.5234818671598,-15.5535191097912,-30.368578984704,-16.7559006312878,73.1991967562607,-32.7180731566045,-82.403660952649,69.4493261429499
12.6733123343149,-9.43687413982617,-18.8938536005415,13.4528036750667,-14.7449258607131,-30.2392654646444,-16.1944628921541,72.5186877045708,-32.7121636524825,-82.0843258247415,69.2116972528141
12.4890167835779,-9.09776585202713,-18.8171828056026,13.3826646515653,-13.9507112038366,-30.1073211924464,-15.6324556104416,71.8295782124887,-32.7071225916705,-81.7647396702931,68.9756206426189
12.2994093180581,-8.76038288295118,-18.742793040798,13.3129159832947,-13.1711891739548,-29.9724193235445,-15.0701527651816,71.1323773206598,-32.7028029930982,-81.4460305516319,68.7424632045856
12.1062018263106,-8.42462286394335,-18.6707251680416,13.243407168128,-12.4065453952356,-29.8342084337685,-14.5078568033933,70.4274594105092,-32.6990460936602,-81.1292317925026,68.5134745813049
11.9109284226998,-8.09034643849761,-18.6010097375566,13.1739945679093,-11.6568493380435,-29.6923167890486,-13.9459105513318,69.7150585419977,-32.6956838255577,-80.8152621144095,68.2897588597917
11.7149320089736,-7.75738434167667,-18.5336662625849,13.1045494028564,-10.9220673390865,-29.5463583733502,-13.3847086181833,68.9952660279409,-32.6925417720967,-80.504911648002,68.0722532027438
11.5193551658252,-7.42554471936587,-18.468702442705,13.0349648406002,-10.202076155781,-29.3959406404667,-12.8247079575131,68.2680316279999,-32.68944234821,-80.1988339574937,67.8617135650635
11.325135453311,-7.09462060527787,-18.4061133848437,12.965161874155,-9.4966768300247,-29.2406738716207,-12.2664372230686,67.5331686721009,-32.6862079003311,-79.8975439298176,67.6587073238922
11.133005097552,-6.7643974831823,-18.345880879695,12.8950937410911,-8.80560863929824,-29.0801819307425,-11.710504541815,66.7903633217604,-32.6826633974189,-79.6014210976993,67.4636123462929
10.9434949348361,-6.43466087226989,-18.2879727994601,12.8247487114913,-8.12856292058748,-28.91411411697,-11.1576033333501,66.0391880555671,-32.6786383950251,-79.3107177040312,67.2766217482805
10.7569423771849,-6.1052038831865,-18.2323426851834,12.7541511625114,-7.46519657031755,-28.7421577306357,-10.6085158341506,65.279119329343,-32.6739679971143,-79.0255706165663,67.0977534066199
10.5735030605999,-5.7758346996008,-18.1789295848806,12.683360956666,-6.81514505162657,-28.5640509078705,-10.0641140339737,64.5095592171806,-32.6684926100911,-78.7460161095602,66.9268632137289
10.3931657438816,-5.44638394361103,-18.1276581875722,12.612471241774,-6.17803477469836,-28.3795952479459,-9.5253577917918,63.7298606900501,-32.6620563731611,-78.4720065431521,66.7636611163144
10.2157699471575,-5.11671188119195,-18.0784392764667,12.5416048838428,-5.55349475204638,-28.1886677574951,-8.99328996348616,62.9393560401972,-32.6545042557191,-78.2034280529634,66.6077291089901
10.0410257592657,-4.78671541549304,-18.0311705018395,12.470909819059,-4.94116746600346,-27.9912316622806,-8.46902844214474,62.1373878228314,-32.6456779355112,-77.9401184701799,66.4585405152049
9.86853520472173,-4.45633480204558,-17.9857374566262,12.4005536568773,-4.34071891719497,-27.7873456830179,-7.95375508476277,61.3233415720882,-32.6354107085542,-77.681884801417,66.3154800388234
9.69781454530769,-4.12556000238667,-17.9420150298051,12.3307178774044,-3.75184784477189,-27.5771714298341,-7.4487015757166,60.496679459716,-32.6235218263827,-77.4285196905312,66.1778641778413
9.52831689780003,-3.79443657266921,-17.899869014004,12.2615919449379,-3.17429411439108,-27.3609786362279,-6.95513235915136,59.6569739991689,-32.6098107951206,-77.1798163472935,66.0449616345914
9.35945457597118,-3.46307096323379,-17.8591579500146,12.1933676141334,-2.60784625229474,-27.1391480285292,-6.47432486738516,58.8039408492876,-32.5940522853266,-76.9355814640013,65.9160133373216
9.1906206086498,-3.13163508622212,-17.8197351967384,12.1262336474679,-2.05234806157868,-26.9121717149373,-6.00754739178399,57.9374697375957,-32.5759923717586,-76.6956456780951,65.7902516387599
9.02120894266094,-2.80036999411087,-17.7814512163013,12.0603711032896,-1.50770419598849,-26.6806510793723,-5.55603509027288,57.0576525060309,-32.5553468315564,-76.4598712000262,65.6669182115984
8.85063290619727,-2.46958850637979,-17.7441560579817,11.9959493001154,-0.973884503067754,-26.4452922658265,-5.12096478770467,56.1648072905538,-32.5318021643501,-76.2281562990256,65.5452801207852
8.67834158127413,-2.13967662824935,-17.7077020103612,11.9331225184649,-0.450926902670261,-26.2068994149581,-4.70342937114759,55.2594978928878,-32.5050198496788,-76.0004364038912,65.4246435106216
8.50383381069865,-1.81109362612115,-17.6719463700955,11.8720274668924,0.0610614458796296,-25.96636585389,-4.30441268210404,54.3425474994711,-32.4746441260405,-75.7766816572932,65.3043643369659
8.32666964345133,-1.48437065694873,-17.6367542518423,11.8127815119372,0.561904909410491,-25.7246634528534,-3.92476584843274,53.4150460571818,-32.4403132723164,-75.5568909235729,65.1838556779357
8.14647910119,-1.16010788887069,-17.602001342798,11.7554816489615,1.05136224034433,-25.4828303678941,-3.56518598055435,52.4783508279511,-32.4016740186726,-75.3410825234212,65.0625914213722
7.96296822685228,-0.838970093695825,-17.5675764918167,11.7002041701224,1.52913160175685,-25.2419573987475,-3.2261980832503,51.5340799062267,-32.3583983522101,-75.1292823261313,64.9401065276876
7.77592245338,-0.521680734934534,-17.5333840186644,11.6470049673773,1.99485772053111,-25.0031732078614,-2.90814091222186,50.5840987766681,-32.3102016766892,-74.9215102053584,64.8159945000362
7.58520740570481,-0.20901461616932,-17.4993456316211,11.5959203929831,2.44814101366344,-24.7676286701557,-2.61115734400057,49.6305002892694,-32.2568611024906,-74.7177661589504,64.6899030257155
7.39076732135058,0.0982108070771948,-17.4654018489497,11.5469685862358,2.88854842162735,-24.5364806504844,-2.33518964027627,48.675578706422,-32.1982326150394,-74.518017486756,64.5615288905594
7.19262134294145,0.399145315107012,-17.4315128332913,11.5001511621777,3.31562559070999,-24.3108755282043,-2.07997978347038,47.7217987057134,-32.1342659767259,-74.3221882516741,64.4306132095491
6.99085799768396,0.692916849769466,-17.3976585747742,11.4554551481015,3.7289099807873,-24.091932793425,-1.84507485195949,46.771760387663,-32.0650164094427,-74.1301519017355,64.2969378272412
6.78562823216964,0.978643302670678,-17.3638384024519,11.4128550521616,4.12794443687552,-23.8807290221637,-1.62983720776153,45.8281614348439,-31.9906523415609,-73.9417275731603,64.1603234975369
6.57713741290939,1.25544498252498,-17.3300698545396,11.3723149591791,4.51229074894939,-23.6782825084521,-1.43345910173384,44.893757602971,-31.9114587646497,-73.7566803205632,64.0206302012294
6.36563673097723,1.52245756780481,-17.2963869770547,11.3337905711975,4.88154273279027,-23.4855388076351,-1.25498116646488,43.9713227034197,-31.8278360198567,-73.5747252999698,63.8777597116636
6.15141446022867,1.77884533438734,-17.2628381387246,11.2972311400268,5.23533839718668,-23.3033574320523,-1.09331416188805,43.0636091640117,-31.7402941052685,-73.3955357108558,63.7316602764769
5.93478751042289,2.02381442904401,-17.2294834539637,11.2625812688727,5.57337082406728,-23.1324999291494,-0.947263259214115,42.1733101318947,-31.6494428422454,-73.2187540934148,63.5823330691039
5.71609368767523,2.25662594333113,-17.1963919067342,11.2297825818994,5.89539747663059,-22.973619552083,-0.81555409351662,41.3030239177877,-31.5559784410691,-73.044006413779,63.4298398999448
5.49568502461456,2.47660853155615,-17.163638272428,11.1987752682412,6.20124775400129,-22.8272526990775,-0.696859785568742,40.4552213956236,-31.4606671511771,-72.8709182604069,63.2743115575527
5.27392247249533,2.68317031261083,-17.1312999424259,11.1694995012579,6.49082871238335,-22.693812251715,-0.589828134784114,39.6322167892042,-31.3643267631539,-72.6991323910081,63.115956049745
5.05117216004549,2.87580979986566,-17.0994537627671,11.141896721959,6.76412895969407,-22.5735828912173,-0.493108224215269,38.8361421127331,-31.2678067493397,-72.5283267838312,62.9550659260312
4.82780332342693,3.05412561592458,-17.068172999834,11.115910766036,7.02122079718192,-22.4667184245326,-0.405375756257248,38.068925390808,-31.1719677935121,-72.3582322635325,62.7920238130613
4.60418790426655,3.21782476802934,-17.0375245397293,11.0914888118354,7.26226072431578,-22.3732411125719,-0.32535654432763,37.3322726686815,-31.0776613800149,-72.1886487127934,62.6273053134561
4.38070170534107,3.36672928391392,-17.0075664145772,11.0685821319785,7.48748844143216,-22.2930429590133,-0.25184770499293,36.6276537380916,-30.9857100086879,-72.0194588630821,62.4614785052051
4.15772689380551,3.50078103771294,-16.9783457304504,11.0471466407895,7.69722448325008,-22.2258888870317,-0.183736211328947,35.9562914472698,-30.8968884946669,-71.8506386982991,62.2951994232511
3.9356555573797,3.62004463225357,-16.9498970512746,11.0271432387614,7.89186660696491,-22.1714217030678,-0.120014572774708,35.3191544297998,-30.8119067153033,-71.6822636301096,62.129203116086
3.71489395637484,3.72470824637933,-16.9222412752912,11.0085379610827,8.07188505231438,-22.1291687208792,-0.0597934972960911,34.7169530686134,-30.7313940874671,-71.514509834149,61.964290164452
3.49586707913816,3.81508240031506,-16.8953850290103,10.9913019394628,8.23781678941905,-22.0985498936884,-0.00231146980697964,34.1501385081729,-30.655886000793,-71.347650472712,61.8013089230696
3.27902310381774,3.89159663548776,-16.8693205974994,10.975411186725,8.39025886617303,-22.0788872770501,0.0530587519996601,33.6189045454285,-30.5858123931893,-71.1820469510009,61.6411341694559
3.06483739664787,3.95479414689309,-16.8440264040316,10.9608462138856,8.52986095517651,-22.0694156227474,0.106806666609669,33.1231922679378,-30.5214886269851,-71.0181358075357,61.4846432600488
2.85381573566826,4.0053244465937,-16.8194680404992,10.947591491076,8.65731718472158,-22.0692938877238,0.15928347770458,32.6626973521659,-30.4631088030382,-70.8564122379681,61.3326912257718
2.64649653693284,4.0439341768567,-16.7955998306571,10.9356347670899,8.77335732890987,-22.0776174349888,0.21070431849752,32.2368799685151,-30.4107416344565,-70.6974115106866,61.1860864150425
2.44345197519816,4.07145623120859,-16.7723668847654,10.9249662670267,8.87873743611955,-22.0934307089756,0.261153071035539,31.8449772515144,-30.3643289866857,-70.5416896202152,61.0455682826255
2.24528803051704,4.08879738137197,-16.749707581796,10.915577792281,8.97422999498689,-22.1157401861155,0.310589570289574,31.4860182828478,-30.3236871682591,-70.3898044745521,60.9117887542767
