Finger Velocity,Scap_X,Scap_Y,Scap_Z,Shoulder horiz abd-adduction,Shoulder flexion-extension,Shoulder internal-external rotation,elbow flexion-extension,forearm pronation-supination,wrist flexion-extension,wrist radial-ulnar deviation
1.3181097372374,-26.159693105188,-16.7812415020319,6.03362826659754,-28.3049910625963,-39.997463732128,-21.3918874317236,74.3353396363165,-29.9303376494667,-40.1583831242511,27.7895473891116
1.72546668642333,-26.1867661755891,-16.7266054896507,6.00534393206451,-28.2954134759598,-39.8988305686396,-21.4139431988509,74.3652890591984,-29.648479950235,-39.7137154144725,27.2530574571248
2.17958528502461,-26.2180789809761,-16.6688487308163,5.97482240974651,-28.2783659527373,-39.7875147307342,-21.4311083729704,74.413644319983,-29.334650171762,-39.2404962796594,26.6815574645391
2.67890983246153,-26.2539524685548,-16.6076105241431,5.94190197997173,-28.2525646778515,-39.6627988884508,-21.4420050617307,74.482872766047,-28.9880402239124,-38.7399829967492,26.0769282125599
3.22206964981438,-26.2947066720533,-16.5425053039821,5.90639187439994,-28.2166788226069,-39.5239765601743,-21.4451720174088,74.5754466504503,-28.6081145680721,-38.2138747607898,25.4415234510731
3.80756044152375,-26.3406579750323,-16.4731269805969,5.86806964986205,-28.1693400156751,-39.3703557476865,-21.439072906128,74.6938056505829,-28.1946225918968,-37.6642762646607,24.7781159602767
4.43361008638675,-26.3921158051263,-16.3990536926036,5.82667864666736,-28.1091526816676,-39.2012629281132,-21.4221070114459,74.8403177103248,-27.7476048075257,-37.0936396986299,24.0898232828731
5.09812188556384,-26.44937873968,-16.31985291792,5.7819256111066,-28.0347051795262,-39.0160472675165,-21.3926223631107,75.01723898961,-27.2673928787895,-36.5046865318864,23.3800154046411
5.79865531995025,-26.5127300286848,-16.2350868800667,5.73347858190801,-27.9445816756784,-38.8140848937819,-21.3489311598466,75.2266737619134,-26.7546037658416,-35.9003119382949,22.6522080363121
6.53242761919615,-26.5824325668774,-16.1443181722334,5.68096515736409,-27.8373746928131,-38.5947830568148,-21.2893272314873,75.4705351115464,-26.2101284885726,-35.283476240402,21.9099464251557
7.29632838415753,-26.6587233705257,-16.0471155047411,5.62397127118739,-27.7116982876309,-38.3575840078734,-21.2121051699013,75.750507236545,-25.6351161117299,-34.6570891996989,21.1566857640346
8.08694323546897,-26.741807633928,-15.9430594659957,5.56204060932584,-27.5662018350883,-38.1019684402403,-21.1155806620243,76.0680100916794,-25.0309535846804,-34.0238940372436,20.3956749719772
8.90058411938591,-26.8318524568008,-15.8317481749355,5.4946747971294,-27.3995844324351,-37.8274583473617,-20.9981114945206,76.4241670661225,-24.3992421189275,-33.3863583211785,19.6298505385333
9.7333246745178,-26.9289803487653,-15.7128026943041,5.42133447846989,-27.2106099741743,-37.5336191750645,-20.8581186748517,76.8197763967266,-23.741770890612,-32.7465782463319,18.8617462239337
10.5810394357221,-27.0332626329411,-15.5858720684843,5.34144139983368,-26.998122975073,-37.2200611763328,-20.6941071285215,77.2552870272546,-23.0604889507757,-32.1062016959823,18.0934230398865
11.4394458375873,-27.1447128878346,-15.4506378487097,5.25438160716742,-26.7610652222681,-36.8864399213522,-20.5046854865805,77.7307795872461,-22.3574762305534,-31.4663742129254,17.3264225134228
12.304148078895,-27.263280583354,-15.3068179757848,5.15950986047949,-26.4984933136684,-36.5324559681429,-20.288584569434,78.2459530730516,-21.634914418093,-30.8277107755071,16.5617449442786
13.1706819697806,-27.3888450784541,-15.1541699100621,5.05615536374717,-26.2095970847952,-36.1578537533714,-20.044674294124,78.8001176920234,-20.8950582993277,-30.1902950131686,15.7998531656243
14.0345599296751,-27.5212101508472,-14.992492932736,4.943628888267,-25.8937188407294,-35.7624198130363,-19.7719788652897,79.3921942052449,-20.1402079605893,-29.5537061022698,15.0407011073211
14.8913153493134,-27.6600992241618,-14.8216295892903,4.82123133442409,-25.5503732015947,-35.3459804864666,-19.4696902337838,80.0207199878185,-19.3726820985177,-28.917072044261,14.2837852060475
15.7365455807134,-27.8051514491635,-14.6414662975624,4.68826373181046,-25.1792672491987,-34.9083992959204,-19.1371799032819,80.6838619125054,-18.5947925800695,-28.2791464922018,13.5282155203182
16.565952878197,-27.9559187865624,-14.4519331895592,4.54403862234694,-24.7803205341535,-34.4495742303365,-18.7740092242143,81.3794360247326,-17.808820303264,-27.6384050440471,12.7728025521806
17.3753826823498,-28.1118642303271,-14.2530032902853,4.38789270733739,-24.353684367866,-33.969435195864,-18.3799383358644,82.1049337868908,-17.0169922895,-26.9931561749055,12.0161554584235
18.1608587171497,-28.2723613034839,-14.044691153741,4.21920057105732,-23.899759688534,-33.4679419248071,-17.95493390852,82.8575544311185,-16.2214598133076,-26.3416616575079,11.2567874573641
18.9186144573672,-28.4366949556044,-13.8270510726667,4.03738922674885,-23.4192126720102,-32.9450826538446,-17.4991758075661,83.6342427064533,-15.4242773134429,-25.682261155704,10.4932244802434
19.6451206171909,-28.6040639922789,-13.600174953777,3.84195317326964,-22.9129871778934,-32.4008738878425,-17.0130627584511,84.431731072133,-14.6273818753692,-25.0134955188594,9.7241132477119
20.337108409931,-28.7735851658156,-13.3641899093557,3.63246960776188,-22.3823130910249,-31.8353615532824,-16.4972170383658,85.2465851902074,-13.8325732237307,-24.334223204374,8.94832496198984
20.991588430345,-28.9442990449214,-13.1192555712227,3.40861341128686,-21.8287096403566,-31.2486238081369,-15.9524881523152,86.0752514140603,-13.0414943819474,-23.6437243091221,8.16505077611271
21.6058651132095,-29.115177754194,-12.8655610993417,3.17017150429904,-21.2539828500471,-30.6407757033527,-15.3799553597436,86.9141048658119,-12.2556134075647,-22.9417869440496,7.37388520388319
22.1775468216725,-29.2851346311285,-12.6033218468276,2.91705615103513,-20.6602164076078,-30.0119757790865,-14.7809288020427,87.7594966650531,-11.4762068548051,-22.2287711815095,6.57489375588857
22.7045517141131,-29.4530357899042,-12.3327756601499,2.64931677606083,-20.0497554326248,-29.3624345311226,-14.1569488540023,88.6077989363664,-10.7043458010118,-21.5056466378405,5.76866144879135
23.1851096261651,-29.6177135090247,-12.0541788336734,2.36714984787814,-19.4251829019283,-28.6924245170066,-13.5097832080476,89.4554463943773,-9.94088535699746,-20.7740010151125,4.95631952064608
23.6177602828495,-29.7779812779945,-11.7678017908689,2.07090639068212,-18.7892888184826,-28.0022917119125,-12.841421127597,90.298973571583,-9.18645854033883,-20.0360185716508,4.13954867892009
24.0013482221896,-29.932650254344,-11.4739246169645,1.76109671064374,-18.1450325674086,-27.2924675916486,-12.1540642975018,91.1350470821666,-8.44147523253879,-19.2944292991146,3.32055841073823
24.335014864367,-30.0805468056291,-11.1728326080856,1.43839196894417,-17.4954992453215,-26.563481323289,-11.4501137624574,91.9604926573452,-7.70612669744408,-18.5524312875794,2.5020431764892
24.6181881978822,-30.220530747953,-10.8648120269214,1.10362230107593,-16.8438510550439,-25.8159713824497,-10.7321525712709,92.7723170009591,-6.98039585185966,-17.8135902156191,1.68711759449355
24.8505705752264,-30.3515138447586,-10.5501462676215,0.757771274724761,-16.1932751205192,-25.0506958906333,-10.0029239242178,93.567724772545,-6.26407318635295,-17.0817211010686,0.879233933040701
25.0321251147235,-30.4724780968905,-10.2291126304975,0.4019666045492,-15.5469292944031,-24.2685409851472,-9.26530484546527,94.3441312024475,-5.55677795658493,-16.3607583910302,0.0820862692950178
25.1630611924763,-30.5824933394139,-9.90197987937377,0.0374672035717257,-14.9078876913277,-23.4705266119251,-8.5222756647009,95.0991709804178,-4.85798401297518,-15.6546210748929,-0.700493570093715
25.2438194794183,-30.6807336665778,-9.56900669700028,-0.334353172251712,-14.2790877569518,-22.6578092735585,-7.77688586144196,95.8307041338334,-4.16704941400129,-14.9670796422211,-1.46464283658178
25.2750569346088,-30.766492235039,-9.23044108017188,-0.712025278391351,-13.6632806493729,-21.8316814573224,-7.03221704750804,96.5368196197771,-3.48324878141186,-14.3016313039379,-2.20657217130066
25.2576321090037,-30.8391940426059,-8.88652064519495,-1.09400622917039,-13.0629865619409,-20.9935676815959,-6.29134399875581,97.2158372948887,-2.80580721219943,-13.6613889838024,-2.92266276151794
25.1925910464433,-30.8984063372474,-8.53747375469603,-1.47870327355637,-12.4804563845902,-20.1450173013103,-5.55729470797271,97.8663088037185,-2.133934471221,-13.0489883049552,-3.60955269464039
25.0811539934368,-30.9438463732474,-8.18352132800335,-1.86449887577138,-11.9176408252996,-19.2876943798912,-4.83301046163944,98.4870177587653,-1.46685815798009,-12.4665153718387,-4.26421000854688
24.924703049761,-30.9753862987246,-7.82487915996668,-2.24977639260505,-11.3761678187867,-18.4233650563257,-4.12130698019564,99.0769794055571,-0.803854580248939,-11.9154568323049,-4.88399108050524
24.7247708114234,-30.9930550362433,-7.46176055076874,-2.63294553483443,-10.8573287373945,-17.5538829126547,-3.42483770870757,99.6354398056606,-0.144276183155815,-11.3966726459275,-5.46668406807712
24.4830299797072,-30.997037111244,-7.09437904439288,-3.01246671046131,-10.3620735783555,-16.6811728855942,-2.74606037378294,100.161874443957,0.512425428819076,-10.9103911780665,-6.01053807981363
24.2012838382535,-30.9876684919302,-6.72295108487119,-3.38687332193991,-9.89101492824423,-15.8072142713338,-2.08720788686854,100.655986073949,1.16668159380772,-10.4562256038431,-6.5142795341075
23.8814574376231,-30.9654296171746,-6.34769842351732,-3.75479116502493,-9.44444012181106,-14.9340233459751,-1.45026453973714,101.117701555408,1.81879424733695,-10.0332100694837,-6.97711765358455
23.5255892762735,-30.9309358838056,-5.96885014209743,-4.11495425167938,-9.02233066673958,-14.0636360640363,-0.836948208027522,101.54716741008,2.46892923739783,-9.63985357813411,-7.3987411879197
23.1358232306183,-30.8849259234993,-5.58664419284381,-4.46621661839648,-8.62438774552558,-13.1980912049094,-0.248698986001947,101.944743811677,3.11711507578349,-9.27420913021442,-7.7793083121421
22.7144004664279,-30.8282480185085,-5.20132839683113,-4.80755994523201,-8.25006245411433,-12.3394142189909,0.313325642593996,102.310996722769,3.76324660943032,-8.93395527310491,-8.11943132482674
22.2636510602169,-30.7618449943701,-4.81316088872083,-5.13809706722943,-7.89858939341017,-11.4896018932831,0.848249299201252,102.646687896373,4.40709288800918,-8.61648692497426,-8.42015736739886
21.7859850727089,-30.6867379085485,-4.42241004362063,-5.45707167077499,-7.56902227432515,-10.650607825216,1.35546932194355,102.952762492301,5.04830838253447,-8.31901213938968,-8.68294594349233
21.2838828465569,-30.604008850481,-4.02935395965124,-5.76385460094074,-7.26027029729427,-9.82432858182133,1.83464410725966,103.23033413106,5.68644664456072,-8.03865137863109,-8.90964355582856
20.7598843461844,-30.5147831871558,-3.63427958693747,-6.05793726656003,-6.97113419640752,-9.01259035127361,2.28567588164939,103.480667315752,6.32097548183405,-7.77253586806392,-9.10245533650956
20.2165774172933,-30.420211614025,-3.23748158722687,-6.33892265598338,-6.70034098685005,-8.21713588197449,2.70868965562522,103.70515727484,6.95129279353147,-7.51790168911389,-9.26391317953778
19.6565849151404,-30.3214523838309,-2.83926098568572,-6.60651450494368,-6.44657661946191,-7.43961154941814,3.10400916051947,103.90530739737,7.57674236561072,-7.27217643018904,-9.39683964820727
19.0825507315789,-30.2196540792536,-2.43992365170951,-6.86050519720099,-6.20851591966128,-6.68155447050343,3.47213062021884,104.082704539543,8.19662913417792,-7.03305550162125,-9.50430687471154
18.4971248381324,-30.1159392758208,-2.03977863207378,-7.10076301170247,-5.98484936006954,-5.94437966883936,3.81369525552468,104.238992578333,8.81023362505355,-6.79856566188267,-9.58958981068504
17.9029475527276,-30.011389412626,-1.63913636322651,-7.32721933868039,-5.77430638650704,-5.22936736649272,4.12946144760208,104.375844678259,9.41682543027585,-6.56711385687127,-9.65611349275538
17.3026333274505,-29.9070311433115,-1.23830680439481,-7.53985646882447,-5.57567518981039,-4.53765054184497,4.42027749044341,104.494934823902,10.0156756681916,-6.33752009029335,-9.70739440690179
16.6987544397381,-29.803824375171,-0.837597541833776,-7.73869651617292,-5.38781898138292,-3.87020296375646,4.68705582894852,104.597909245972,10.6060683939495,-6.10903371355845,-9.74697653215109
16.0938250452148,-29.7026521298559,-0.437311894670548,-7.92379195806309,-5.20968895942366,-3.22782799958516,4.93074959215789,104.686358414858,11.1873108986412,-5.88133325842867,-9.77836318852357
15.4902861118789,-29.6043122896262,-0.0377469975230564,-8.09521815760938,-5.04033421768904,-2.61114859490481,5.15233208404132,104.761790278554,11.7587427812392,-5.65451071246846,-9.80494638643558
14.8904917969024,-29.5095112382308,0.360808230152178,-8.25306808926099,-4.8789088473043,-2.02059890890274,5.35277970797436,104.825605384851,12.3197436206394,-5.42904187127001,-9.82993596982628
14.296697842732,-29.4188593698191,0.758075350696593,-8.39744934159286,-4.72467644003335,-1.45641812196447,5.5330586108426,104.87907446955,12.8697390362601,-5.20574496422916,-9.85629141417456
13.7110525517142,-29.3328684228401,1.15378901190395,-8.52848334002818,-4.57701215343595,-0.918646889827132,5.6941151589043,104.923319033408,13.4082049170718,-4.98573005240091,-9.88665952594802
13.1355908409483,-29.2519505936507,1.5476999273467,-8.64630661837945,-4.435402468958,-0.40712681596678,5.83687019710042,104.959295379148,13.9346696182571,-4.77034174992497,-9.92332131228105
12.5722317741686,-29.176419387606,1.9395782022613,-8.75107386877998,-4.29944276862384,0.0784968160647411,5.96221688627264,104.987782529199,14.4487139628251,-4.56109770066866,-9.96815090781803
12.0227798079947,-29.1064921647424,2.32921691300689,-8.8429624099112,-4.16883286627153,0.538768941330781,6.07102175585993,105.009374378604,14.9499689409898,-4.3596250155938,-10.0225887572259
11.488929769494,-29.042294327159,2.71643580091167,-8.9221776302717,-4.04337064530854,0.974415264088976,6.1641284589625,105.02447634132,15.4381110766396,-4.16759659184062,-10.0876303649961
10.9722752958421,-28.9838650741692,3.10108490891857,-8.9889588928675,-3.9229439732618,1.38632960795213,6.24236358545169,105.033306619962,15.912855524205,-3.98666894271613,-10.1638309156888
10.4743201130837,-28.9311646203552,3.48304797679076,-9.04358534674454,-3.80752108634813,1.77555832872634,6.30654379664622,105.035902080822,16.3739470616188,-3.81842291644749,-10.2513250366029
9.9964911127233,-28.8840827344374,3.86224541921069,-9.08638109455342,-3.69713966740197,2.14328214591439,6.35748351006356,105.032128565989,16.8211492488736,-3.66430850154897,-10.3498600471342
9.54015171375009,-28.8424484196364,4.23863673367243,-9.11771921755602,-3.59189487478528,2.49079581833826,6.39600239135296,105.021695336516,17.254232120105,-3.52559482085029,-10.4588403083383
9.1066134991835,-28.8060405251391,4.61222221295669,-9.13802425265952,-3.49192661095058,2.81948614457455,6.42293199346774,105.004173218471,17.6729588620192,-3.40332639144306,-10.5773797903756
8.69714363734783,-28.7745990554269,4.98304386829194,-9.14777283563247,-3.39740634195455,3.13080881642751,6.43912099889355,104.979015915502,18.0770719973063,-3.29828672668095,-10.7043597274355
8.31296521715771,-28.7478369268877,5.35118550683314,-9.14749235250954,-3.30852379328777,3.42626468644627,6.44543864708453,104.945583860676,18.4662796342849,-3.21097031632595,-10.838488228526
7.95524746258686,-28.7254519059459,5.71677195143489,-9.1377575622331,-3.22547385432109,3.70737601022947,6.4427760570217,104.903169919989,18.8402423565986,-3.14156389476343,-10.9783589314353
7.62508300636564,-28.7071384500184,6.07996743685951,-9.11918526197581,-3.14844402400687,3.97566318059928,6.43204528580486,104.851026242985,19.1985613040614,-3.08993767290544,-11.1225061749733
7.32345018772592,-28.6925991660956,6.44097325486715,-9.09242716023766,-3.07760272384878,4.23262240073297,6.4141760912302,104.788391577765,19.5407679430896,-3.0556468631868,-11.2694546532636
7.05115986738033,-28.6815556064491,6.80002474146941,-9.05816119007616,-3.01308878745445,4.4797046813728,6.39011046392195,104.714518407045,19.8663159580214,-3.03794337719413,-11.4177620353459
6.80878859393585,-28.673758136911,7.15738770006459,-9.01708151999973,-2.95500240391254,4.71829651162172,6.36079504135276,104.628699300499,20.1745756266359,-3.035797037367,-11.5660535347694
6.59660295399365,-28.6689946340726,7.51335433961759,-8.96988750911872,-2.90339774414273,4.94970253323343,6.3271715231729,104.530291914883,20.4648309778663,-3.0479250524538,-11.713047875849
6.41448310615983,-28.6670977862368,7.86823878534887,-8.91727184343734,-2.85827744359921,5.17513052590403,6.29016521806478,104.418742116623,20.7362799650908,-3.07282795160356,-11.857574526063
6.26185601046836,-28.6679507870175,8.2223721950465,-8.85990812574387,-2.81958906265934,5.39567897831107,6.25067191393626,104.293604758397,20.9880378256365,-3.10882979464655,-11.998582462996
6.13764973380313,-28.6714912270804,8.5760974901768,-8.79843828170121,-2.78722359945928,5.61232747791382,6.20954338763793,104.15456171297,21.219143740018,-3.15412037080087,-12.135141121568
6.04027867652847,-28.6777130228708,8.92976369375552,-8.73346024533036,-2.76101607527822,5.82593010143226,6.16757201623515,104.001436853418,21.4285708498013,-3.20679723501812,-12.2664344848818
5.96766553021688,-28.6866662815123,9.28371986378712,-8.6655164392087,-2.74074813493401,6.03721192345365,6.12547506136397,103.834207766408,21.6152396254416,-3.26490570797028,-12.3917494913363
5.9173000490113,-28.698455083513,9.63830862443995,-8.59508355016396,-2.72615250687353,6.24676867978043,6.08387925164042,103.653014085749,21.7780344759549,-3.32647531112795,-12.5104600320818
5.88632881382019,-28.7132332544404,9.99385932320829,-8.52256404353937,-2.71691906809612,6.45506952654938,6.04330630619644,103.458162421642,21.9158233550947,-3.38955150881969,-12.622007860919
5.87166571544711,-28.7311982817334,10.3506808734313,-8.44827978515465,-2.71270217565289,6.66246273361737,6.00416005046002,103.250127923691,22.0274799603166,-3.45222208567287,-12.7258817869453
5.87011093662203,-28.7525836093507,10.709054369455,-8.37246806114307,-2.71312887023196,6.86918405288429,5.96671578294015,103.029552552101,22.1119079721018,-3.51263798197909,-12.8215965743073
5.87846689224356,-28.7776496094275,11.0692255821302,-8.29528020336782,-2.71780753517161,7.07536741780373,5.93111255337261,102.7972401549,22.1680666691295,-3.56902889895547,-12.9086729984852
5.89364218541079,-28.8066735834355,11.4313974564959,-8.21678294334832,-2.72633660946024,7.28105756168772,5.89734899349512,102.554148476133,22.1949971888388,-3.61971441404926,-12.9866204719709
5.91273806958782,-28.8399391816492,11.7957227445818,-8.13696253732697,-2.73831300325076,7.48622408944968,5.86528328795711,102.30137825966,22.191848674518,-3.66311165704609,-13.0549235508293
5.93311518897582,-28.8777256460686,12.1622969152601,-8.05573163960605,-2.75333994063916,7.69077650219839,5.83463777737664,102.040159664645,22.1579035435153,-3.69774075077987,-13.1130334803952
5.95244089209437,-28.9202972763116,12.5311514881288,-7.97293885385148,-2.77103404590781,7.89457966080901,5.8050085450878,101.77183626814,22.092601115133,-3.72222920687983,-13.1603657365857
5.96871898388561,-28.9678934888543,12.9022479365319,-7.88838085146602,-2.7910315858932,8.09746918772641,5.77588014944429,101.49784699391,21.9955588467826,-3.73531631191383,-13.1963042579095
5.98030450111928,-29.0207197873159,13.2754722932874,-7.80181689429351,-2.81299387488197,8.29926635052151,5.74664542302999,101.219706368454,21.8665904434076,-3.73585828034283,-13.2202127262483
5.98590620429247,-29.0789398892217,13.6506305700812,-7.71298552659589,-2.83661193354527,8.49979204976075,5.71662997964086,100.938983552609,21.7057201356595,-3.72283461909199,-13.2314528337774
