Finger Velocity,Scap_X,Scap_Y,Scap_Z,Shoulder horiz abd-adduction,Shoulder flexion-extension,Shoulder internal-external rotation,elbow flexion-extension,forearm pronation-supination,wrist flexion-extension,wrist radial-ulnar deviation
0.878959363845481,-22.2811561394479,-17.0356807631054,5.71922058686266,-28.0261396586473,-49.6568770314963,-14.0533298425903,79.42517885494,-32.3081546712095,-74.2233020920887,48.3268774457435
1.06847137408133,-22.2559365986799,-17.0333029877055,5.72251942880297,-28.052328711469,-49.6457202380242,-14.0511486183822,79.4159444634512,-32.1495942936305,-74.7314905269974,48.8251653304636
1.27233614393327,-22.2294071855703,-17.0304179944466,5.72584166013793,-28.0824468706278,-49.6348325271895,-14.0503686217641,79.4094729816142,-31.9797249389192,-75.2126011176718,49.2993139248051
1.48927919282699,-22.2018804974091,-17.0269371726163,5.72908990092236,-28.1164382727892,-49.6245373807704,-14.0511065898355,79.4062496362934,-31.7990645112554,-75.6548951366155,49.7378047862855
1.71793434303289,-22.1737108109134,-17.0227607970628,5.73215250036652,-28.1541583627121,-49.6151887568459,-14.0534355808291,79.4067382398877,-31.6082265486088,-76.0459808901491,50.1283938064896
1.95681863824014,-22.1452882041415,-17.0177793964607,5.73490359648468,-28.1953699291438,-49.6071649569874,-14.0573778306074,79.4113705596803,-31.4079051055778,-76.3729018728754,50.4581911171043
2.20432978050504,-22.1170313107971,-17.0118755399247,5.73720343722619,-28.239740828028,-49.600861095089,-14.062898409556,79.4205357050896,-31.1988581497769,-76.6222422725363,50.7137601705532
2.45875630171264,-22.0893788691385,-17.0049260536854,5.73889899270693,-28.2868433707123,-49.5966802125612,-14.0698999380236,79.4345697365028,-30.9818900432953,-76.7802592637059,50.881245505909
2.71829562431863,-22.0627802705234,-16.9968046691146,5.73982488970359,-28.3361553145634,-49.5950231215032,-14.0782185910627,79.4537457060411,-30.7578336318402,-76.8330550871456,50.946542155173
2.98107727814373,-22.0376853451306,-16.9873850890152,5.73980469650877,-28.3870623678828,-49.596277098753,-14.0876215703156,79.4782643477949,-30.5275324008816,-76.7668054064349,50.8955230497054
3.24518948109133,-22.0145336463293,-16.9765444402141,5.7386525765892,-28.4388621026053,-49.6008036013442,-14.0978061438126,79.5082456373001,-30.2918230991062,-76.5680631804619,50.7143434773596
3.5087077214503,-21.9937435130403,-16.9641670582481,5.73617531563124,-28.4907691497517,-49.6089252251063,-14.1084002621193,79.5437214301156,-30.0515191831614,-76.2241582819594,50.3898426129916
3.76972418015311,-21.9757012029737,-16.9501485258915,5.73217471318659,-28.5419215329228,-49.6209121771552,-14.1189646673293,79.58462936249,-29.8073954012346,-75.7237109667298,49.9100600381514
4.02637693240617,-21.9607503991255,-16.9343998618418,5.72645031998855,-28.591387980148,-49.6369685755482,-14.1289963365068,79.6308081543399,-29.560173797958,-75.0572702891275,49.2648782139276
4.27687793308168,-21.9491823960145,-16.916851729466,5.71880249412116,-28.6381760514542,-49.657218924823,-14.1379330542018,79.6819944024471,-29.3105113818344,-74.2180746302145,48.4467880319092
4.51953885258943,-21.9412272678493,-16.8974585105444,5.70903574089057,-28.6812409315401,-49.6816951461774,-14.1451588930842,79.73782089756,-29.0589896459484,-73.2029089008439,47.4517520722447
4.7527939082276,-21.9370463045355,-16.8762020694533,5.69696229035248,-28.7194947616212,-49.7103245662993,-14.150010395505,79.7978164480867,-28.806106075155,-72.0130013430612,46.2801086671
4.97521894079598,-21.9367259708909,-16.8530950231473,5.68240585192333,-28.7518164173632,-49.7429192866623,-14.1517832853505,79.8614071479204,-28.5522677133115,-70.654864853411,44.9374219628614
5.18554612303596,-21.9402735999282,-16.8281833346804,5.66520546785422,-28.7770616772938,-49.7791673599827,-14.1497395896689,79.927918989016,-28.2977868083369,-69.1409507714727,43.4351462663523
5.38267385691383,-21.9476149752152,-16.8015480640952,5.64521936958513,-28.7940737657208,-49.8186261872735,-14.1431151047884,79.9965816934172,-28.0428785061338,-67.4899597341056,41.7909496570693
5.56567161913483,-21.9585938941498,-16.7733061383784,5.62232872751471,-28.8016942926839,-49.860718515582,-14.1311271962234,80.0665336262305,-27.7876605298617,-65.7266601369235,40.0285477844797
5.7337797434199,-21.972973737768,-16.7436100378979,5.59644117831459,-28.798774645041,-49.9047313639888,-14.1129829705059,80.1368276514295,-27.5321547579587,-63.8811127093215,38.1769466732159
5.88640437539343,-21.9904410069426,-16.7126463379444,5.56749401441506,-28.7841879003045,-49.9498181345396,-14.087887894183,80.2064378067733,-27.2762905977544,-61.9872910845715,36.2690846006251
6.02310808942534,-22.0106107218426,-16.68063309082,5.5354569267517,-28.7568413349385,-49.9950040742028,-14.0550549572854,80.2742667005228,-27.0199100345556,-60.0812065130415,34.3399811639644
6.14359690139543,-22.0330335229854,-16.647816085842,5.50033420540827,-28.7156895854064,-50.0391951422051,-14.013714488843,80.339153564306,-26.7627742116233,-58.1987568638156,32.4246133735691
6.24770462976367,-22.0572042602875,-16.6144640779466,5.46216632526006,-28.6597484982109,-50.0811902076285,-13.9631247345716,80.3998829243956,-26.5045713615485,-56.3735877593468,30.5558060078715
6.33537573115965,-22.0825718140845,-16.5808631247863,5.42103087227051,-28.588109669822,-50.1196963679622,-13.9025832941047,80.4551938727051,-26.2449258719195,-54.6352518042733,28.7624213110596
6.40664784827111,-22.1085498613809,-16.5473102135983,5.37704279101899,-28.4999556142573,-50.1533470593738,-13.831439465162,80.5037899303632,-25.9834082440201,-53.0078808945461,27.0680619234528
6.46163534222818,-22.1345282814207,-16.5141063920945,5.33035394612061,-28.3945753942843,-50.1807225373324,-13.7491074359342,80.5443495028895,-25.719545703908,-51.5094726382521,25.4903868233265
6.50051502903481,-22.1598848846517,-16.4815496431665,5.28115199213894,-28.2713804188532,-50.2003722414492,-13.6550801117023,80.5755369235675,-25.4528332491357,-50.1517734759572,24.0410215216593
6.52351519687452,-22.183997145083,-16.4499277626301,5.22965855313101,-28.129919970087,-50.2108385101133,-13.5489431902938,80.5960140660327,-25.1827449525159,-48.9406512815005,22.7259539265363
6.53090875343356,-22.2062536154364,-16.4195115137634,5.17612673630163,-27.9698959070086,-50.2106810684649,-13.4303889486186,80.6044524800493,-24.9087453866385,-47.8768049309517,21.546262066279
6.52301105321361,-22.226064708926,-16.390548340067,5.12083804195118,-27.7911759175876,-50.1985016779648,-13.2992290903497,80.5995459739399,-24.6303010711729,-46.9566551098276,20.4990167837296
6.500182604951,-22.2428725515895,-16.3632569081936,5.06409876941747,-27.593804658282,-50.1729683215227,-13.155405945779,80.5800235413345,-24.3468918746905,-46.1732858414249,19.578227922816
6.46283648463161,-22.2561596609311,-16.3378227110436,5.00623603971536,-27.3780121248674,-50.1328383255019,-12.9990013193112,80.5446625123558,-24.0580223215824,-45.5173438565173,18.775740400774
6.41144990808247,-22.2654562945051,-16.3143948819274,4.94759355261784,-27.1442186353305,-50.076979897501,-12.8302423490481,80.4923017978482,-23.7632327587564,-44.9778404760066,18.0820244029901
6.34657907508833,-22.2703464154462,-16.2930842722202,4.88852717644653,-26.8930358804181,-50.0043916691834,-12.6495038637655,80.4218550851068,-23.462110322329,-44.5428310784738,17.4868347326802
6.26887610597215,-22.2704723075123,-16.273962757486,4.82940044872926,-26.6252636208528,-49.9142199424185,-12.457306875799,80.3323238332489,-23.1542996154193,-44.1999682279031,16.9797358532405
6.17910666591832,-22.2655379200002,-16.2570636804259,4.77058005520992,-26.3418817843865,-49.8057734192889,-12.254313019025,80.2228099089394,-22.8395129771262,-43.9369370004046,16.5505021558163
6.07816671802808,-22.2553110372371,-16.2423833112993,4.71243135242901,-26.0440379288848,-49.6785352493253,-12.0413149249376,80.0925277010865,-22.5175402010515,-43.7417871217927,16.1894095037556
5.9670967614212,-22.2396243646618,-16.2298831939031,4.65531399994508,-25.7330302703871,-49.5321722630333,-11.8192227274446,79.9408155546834,-22.1882575513142,-43.6031783809014,15.8874362460056
5.84709188829784,-22.2183756165688,-16.2194932370794,4.59957776971571,-25.4102867084328,-49.3665412925695,-11.5890470939375,79.767146366731,-21.8516359196179,-43.5105550997562,15.6363913292917
5.71950602461214,-22.1915266847646,-16.2111154051698,4.54555860198898,-25.0773404966614,-49.1816925151475,-11.3518793821705,79.5711371904322,-21.5077479586123,-43.4542634363374,15.428985123277
5.5858487971069,-22.1591019645206,-16.20462785699,4.49357497725784,-24.7358033851432,-48.9778697933093,-11.1088696970752,79.3525576961097,-21.1567740026694,-43.4256228607989,15.2588560247041
5.44777359864555,-22.1211859150258,-16.1998893829423,4.44392466794884,-24.3873371830869,-48.7555080273086,-10.861203744086,79.1113373352232,-20.7990065428574,-43.4169608819469,15.1205634247657
5.30705562362474,-22.0779199351206,-16.1967439936358,4.39688191885233,-24.0336247457757,-48.5152275778587,-10.6100794292902,78.8475710460638,-20.4348529682668,-43.4216182814215,15.0095554782385
5.16555895609162,-22.0294986389144,-16.1950255200666,4.35269508411466,-23.676341380048,-48.2578258624206,-10.3566841408368,78.5615233293394,-20.0648362408422,-43.4339307532543,14.9221183532792
5.02519227662857,-21.9761656175743,-16.1945620954023,4.31158472622668,-23.3171275985626,-47.9842662743239,-10.1021735715511,78.2536305146913,-19.6895931574432,-43.4491918543952,14.8553122462822
4.88785348450566,-21.9182087723089,-16.1951804034668,4.27374216337826,-22.9575640451406,-47.6956646186716,-9.84765282274679,77.9245010408716,-19.3098698891476,-43.4636014368498,14.8068983705505
4.755364573401,-21.8559552999759,-16.1967095999739,4.23932843788434,-22.5991492714686,-47.393273299386,-9.59416037404663,77.5749135877164,-18.9265145817891,-43.4742031489055,14.7752602901955
4.6293994660767,-21.7897664080776,-16.1989848367031,4.20847367011437,-22.2432808796106,-47.0784635285823,-9.34265532203865,77.2058129305971,-18.5404669470023,-43.4788140966891,14.7593222927358
4.51140911585599,-21.7200318313423,-16.2018503411445,4.18127675804238,-21.891240363891,-46.7527058670612,-9.09400809015579,76.8183034370788,-18.1527449524953,-43.4759493386012,14.7584669392842
4.40254977926189,-21.6471642180913,-16.2051620214951,4.15780538048131,-21.5441817962053,-46.4175494461644,-8.8489946031066,76.4136401846128,-17.7644289131488,-43.4647435482284,14.7724534929225
4.30362155501059,-21.571593451163,-16.2087895800039,4.13809626196997,-21.2031243109161,-46.0746002642855,-8.60829371805305,75.9932177398458,-17.3766434678146,-43.4448719057727,14.8013385947161
4.2150245835719,-21.4937609653979,-16.2126181289584,4.12215566048257,-20.868948179985,-45.7254989899111,-8.37248753942223,75.5585567036417,-16.9905380724026,-43.4164720332963,14.8454003180512
4.13673930044141,-21.414114121352,-16.2165493140144,4.10996004706629,-20.5423941507723,-45.3718987316616,-8.14206414419267,75.111288195294,-16.6072667218413,-43.380068561908,14.9050665715408
4.06833471633775,-21.3331006919652,-16.220501958451,4.10145695918957,-20.2240656579969,-45.0154432512373,-7.91742221744588,74.6531365233099,-16.2279676251602,-43.3365017096411,14.9808487209392
4.00900518205146,-21.2511635147467,-16.2244122494346,4.09656602480469,-19.9144335036039,-44.6577460946905,-7.69887712149986,74.185900358954,-15.8537435185592,-43.2868610415304,15.0732812270311
3.95763222807198,-21.1687353577624,-16.2282334954838,4.09518016775853,-19.6138426001666,-44.3003710967854,-7.48666796461419,73.7114327827095,-15.4856432394082,-43.2324253295428,15.1828679949114
3.91286478056552,-21.0862340452714,-16.2319354941768,4.09716701316749,-19.3225203815284,-43.9448146689412,-7.28096528021655,73.2316206084749,-15.1246451162085,-43.1746090823083,15.310035956522
3.873209117636,-21.0040578893544,-16.2355035590899,4.10237051209999,-19.0405864975361,-43.5924902145721,-7.0818789724177,72.7483634052865,-14.7716426557704,-43.1149158882455,15.4550961722056
3.83711967453337,-20.9225814772885,-16.238937262451,4.11061279928018,-18.7680634282925,-43.2447149321846,-6.88946622800081,72.2635526343761,-14.427432921837,-43.0548982922233,15.6182124944455
3.80308305240919,-20.8421518697718,-16.2422489538859,4.12169628742692,-18.5048876749191,-42.9026991733472,-6.70373913839305,71.7790513033091,-14.0927078924277,-42.9961235948806,15.799377643896
3.76968978592284,-20.7630852701952,-16.2454621156948,4.13540598908305,-18.2509212076047,-42.5675384261148,-6.52467182043527,71.2966745064803,-13.7680489527495,-42.9401447796164,15.9983964353992
3.73569092468631,-20.6856642270875,-16.2486096116296,4.15151204188891,-18.0059628797427,-42.2402079013854,-6.35220687546005,70.8181711685958,-13.4539245282747,-42.8884757496057,16.214875864137
3.70003874135018,-20.6101354282661,-16.251731880179,4.16977239494262,-17.7697595495149,-41.9215596174449,-6.18626107789688,70.3452072418154,-13.1506907002276,-42.8425701703098,16.4482217890425
3.66191257995454,-20.5367081353966,-16.2548751160912,4.18993559261524,-17.5420166850061,-41.6123218126438,-6.02673022797442,69.8793505453432,-12.8585944968319,-42.8038033982639,16.6976419726207
3.62073190930314,-20.465553292963,-16.2580894762295,4.21174357366099,-17.3224082643796,-41.313100468372,-5.87349313482976,69.422057388515,-12.5777794451092,-42.7734571575949,16.9621551999704
3.5761591083242,-20.3968033287289,-16.2614273392471,4.23493439533136,-17.1105858195638,-41.0243826901573,-5.72641472252569,68.9746610788166,-12.3082929157897,-42.7527067490986,17.2406060887531
3.52809451619164,-20.3305526455458,-16.2649416440149,4.25924479786864,-16.9061865120073,-40.7465416708032,-5.58534828080485,68.5383623761159,-12.0500947953565,-42.7426106316798,17.5316850374215
3.47666597174614,-20.2668587873585,-16.2686843283824,4.28441254252608,-16.7088401734667,-40.4798429478559,-5.45013692014189,68.1142219146122,-11.8030670573532,-42.7441022171791,17.833952583363
3.42221456368052,-20.2057442457143,-16.2727048857235,4.31017848146189,-16.5181752916539,-40.2244516724372,-5.32061433504602,67.7031545804992,-11.5670238596257,-42.7579836844827,18.1458672939292
3.36527770238517,-20.1471988574546,-16.277049051053,4.33628834389835,-16.3338239647958,-39.9804406287239,-5.19660502076756,67.3059258091874,-11.3417218497434,-42.7849215648682,18.4658162003403
3.30656996825647,-20.0911827294385,-16.281757622729,4.36249424337913,-16.1554258858201,-39.7477987783619,-5.07792411342592,66.9231497503204,-11.1268704083387,-42.8254438064891,18.7921466965774
3.24696154005762,-20.0376296116032,-16.2868654229627,4.38855592249304,-15.9826314440677,-39.5264401419688,-4.96437702461997,66.5552892390447,-10.9221415954785,-42.8799380242464,19.1231987679872
3.1874534154196,-19.9864506261035,-16.2924004034052,4.41424175457376,-15.8151040506731,-39.3162128598759,-4.8557590216205,66.2026575049607,-10.7271795899638,-42.9486506910494,19.4573364094056
3.12914817758856,-19.9375382497545,-16.2983829108142,4.43932951986785,-15.6525218041822,-39.116908290302,-4.75185487345547,65.8654215425691,-10.5416094337481,-43.0316871079517,19.7929771467609
3.07321483985638,-19.8907704412996,-16.3048251377242,4.46360697130529,-15.4945786166841,-38.9282700062114,-4.65243865238248,65.5436070565166,-10.3650449256323,-43.1290120777071,20.1286186679138
3.02084643850321,-19.8460148048198,-16.3117307878863,4.48687220705877,-15.3409849196432,-38.7500025480957,-4.55727375596401,65.2371048815135,-10.1970955587803,-43.2404512779916,20.462861668539
2.97320967435385,-19.8031326856897,-16.3190949819268,4.50893387623406,-15.1914680652037,-38.5817797856254,-4.46611319906881,64.9456787609032,-10.0373724629346,-43.3656933756318,20.794428123427
2.93138709894378,-19.7619831046598,-16.3269044153146,4.52961126023005,-15.0457725340341,-38.4232527413412,-4.37870021705761,64.6689743499274,-9.88549337951656,-43.5042929499783,21.1221743364629
2.89631405239012,-19.7224264474465,-16.3351377618264,4.54873429207235,-14.9036600531442,-38.2740567369812,-4.29476921884167,64.4065292932558,-9.74108674499385,-43.6556743212916,21.4450983371699
2.86871453081156,-19.6843278411199,-16.3437662964235,4.56614359231436,-14.7649097135435,-38.1338177393082,-4.21404712649355,64.1577842187549,-9.60379496945472,-43.8191364180517,21.7623414697657
2.84904190980656,-19.6475601643063,-16.3527546968235,4.58169060571986,-14.6293181578727,-38.0021578076829,-4.13625513189258,63.9220944971224,-9.47327697379625,-43.9938588663136,22.0731843323803
2.83743136065043,-19.6120066544429,-16.362061975576,4.59523791495348,-14.4966998865858,-37.8786995784046,-4.06111088914716,63.698742639477,-9.34921000836382,-44.1789095437057,22.3770375575852
2.83367033816608,-19.5775630905258,-16.3716424937009,4.60665978759672,-14.3668877135336,-37.7630697581301,-3.98833114455508,63.4869512353088,-9.23129074442595,-44.3732538944712,22.67342826994
2.83719152747878,-19.5441395436229,-16.3814470117202,4.61584298559585,-14.239733390786,-37.6549016380889,-3.91763478444762,63.2858963644487,-9.1192356280317,-44.5757663129744,22.9619833660305
2.84708947870131,-19.5116616997763,-16.3914237431147,4.62268783826689,-14.1151084174758,-37.5538366823774,-3.8487462599602,63.0947214466083,-9.01278051983713,-44.7852438407259,23.2424109752592
2.86215865728278,-19.4800717702,-16.4015193859305,4.62710955653914,-13.9929050429244,-37.4595252897898,-3.78139933254864,62.9125515197618,-8.91167970684392,-45.0004222912786,23.5144815452485
2.88094774681267,-19.4493290116578,-16.411680116015,4.62903974759874,-13.8730374612651,-37.3716268787351,-3.71534107406973,62.7385079593323,-8.8157044462212,-45.2199947461873,23.7780099596171
2.90182344780879,-19.4194098862917,-16.4218525278918,4.62842807287193,-13.7554431686024,-37.2898094887269,-3.6503360428128,62.571723655943,-8.72464126635549,-45.4426321689169,24.0328399411714
2.92303690239797,-19.3903078956613,-16.4319845087724,4.62524397763624,-13.6400844212363,-37.2137491135022,-3.58617053764492,62.4113586561359,-8.63829028548315,-45.6670056605324,24.2788317086218
2.94278694577405,-19.3620331284929,-16.4420260320436,4.61947840937715,-13.5269497069111,-37.1431289695537,-3.52265681123494,62.2566162406177,-8.55646380272774,-45.8918096419067,24.5158534512936
2.9592760951225,-19.3346115655856,-16.4519298611464,4.6111454364895,-13.4160551274865,-37.0776388628769,-3.45963711017284,62.106759374482,-8.47898537583367,-46.1157850338252,24.7437767350751
2.97075699931912,-19.3080841881584,-16.4616521614591,4.60028368060965,-13.3074455908679,-37.0169747595495,-3.3969874120427,61.9611274188285,-8.40568954321167,-46.3377413803008,24.9624755679701
2.97556862751082,-19.2825059373826,-16.471153023051,4.58695748482055,-13.2011957189322,-36.9608386078457,-3.33462074485853,61.819152947057,-8.33642229441738,-46.5565768711728,25.1718286281274
2.97216262469686,-19.2579445736017,-16.4803968986549,4.57125775249105,-13.0974103900498,-36.9089384117232,-3.27248998947951,61.6803784649346,-8.27104235126504,-46.7712953709089,25.3717241066802
2.95912102618016,-19.2344794850173,-16.4893529591125,4.55330240097479,-12.9962248420258,-36.8609885206865,-3.21059006561231,61.5444727930262,-8.20942328626753,-46.9810198008723,25.5620666785296
2.93516700937924,-19.2122004972374,-16.4979953647469,4.53323637725092,-12.8978042611396,-36.8167100760955,-3.14895938466255,61.4112468333403,-8.15145646411279,-47.1850014827798,25.7427861935423
2.8991707104255,-19.1912067353427,-16.5063034478227,4.51123118181704,-12.8023427793911,-36.775831535748,-3.087680432598,61.2806684096604,-8.09705473758678,-47.3826252883313,25.9138477109341
2.85015248411507,-19.1716055870114,-16.514261800694,4.48748384861138,-12.7100618012353,-36.7380891868275,-3.02687934234581,61.1528758450714,-8.04615676365946,-47.5734106459515,26.0752624612428
2.78728648008114,-19.1535118068287,-16.5218602678372,4.46221533692311,-12.6212075886863,-36.7032275523469,-2.96672433867609,61.0281899223738,-7.99873173751837,-47.7570086341323,26.2270992342946
