Finger Velocity,Scap_X,Scap_Y,Scap_Z,Shoulder horiz abd-adduction,Shoulder flexion-extension,Shoulder internal-external rotation,elbow flexion-extension,forearm pronation-supination,wrist flexion-extension,wrist radial-ulnar deviation
0.963939360707968,-19.1276241630203,-25.8395000672426,8.27994734492838,-28.737151616213,-39.0478609337551,-15.9297734380185,81.4950684111029,-34.5216596617324,-102.941744174835,82.7105598667697
1.13990744342168,-19.1245358982977,-25.8311917933708,8.33145553911687,-28.8107464752999,-39.0801183254036,-15.9306015469088,81.5355965501901,-34.3300564443117,-102.28284861883,82.1150388658577
1.332852847066,-19.1219701590144,-25.8227910492622,8.38170749483439,-28.8869070274256,-39.1187673674002,-15.9285492533447,81.5880095667015,-34.1406419435335,-101.540273213546,81.4308729887238
1.54233359911517,-19.1201190106481,-25.8142722663006,8.43011894703984,-28.9651410839559,-39.163723065964,-15.9234006743007,81.6529251025926,-33.9547980098909,-100.716169689228,80.6585294259711
1.76774056576877,-19.1191847796653,-25.8055882691177,8.47612232789299,-29.044911383832,-39.2147656459553,-15.9149493471751,81.730798273834,-33.7737675634662,-99.8139724091242,79.7997449116054
2.00827504752292,-19.1193754222032,-25.7966693160153,8.51917545336359,-29.1256376855713,-39.271534869506,-15.9029943636871,81.821897876383,-33.5986177077787,-98.8383577917175,78.8575390409016
2.26293400129319,-19.120899461783,-25.7874229362821,8.55876965497605,-29.2066985911523,-39.3335264869212,-15.8873361644546,81.9262835458147,-33.4302052096705,-97.795156458362,77.8361868844669
2.53050147463041,-19.1239606529619,-25.7777345687978,8.5944371576073,-29.2874330072847,-39.4000909765111,-15.8677721906849,82.0437843477131,-33.2691451185202,-96.6912132056093,76.7411441634715
2.80954545062091,-19.1287525357687,-25.7674689687613,8.62575753634321,-29.3671412050777,-39.4704347016218,-15.844092560534,82.1739793645999,-33.1157832144189,-95.5341932714133,75.5789210456727
3.09841966208959,-19.1354530453749,-25.7564723172877,8.65236312252255,-29.4450855031238,-39.5436235740538,-15.8160758995903,82.3161809346546,-32.9701728929303,-94.332337862718,74.3569046587125
3.39527013167309,-19.1442193319491,-25.7445749401823,8.67394327356379,-29.5204906742246,-39.6185892634669,-15.7834854298492,82.4694212666115,-32.8320570259838,-93.0941770623865,73.0831352805063
3.69804629084144,-19.155182927188,-25.7315945176203,8.6902474714937,-29.592544259374,-39.6941379367873,-15.7460654233675,82.6324431841319,-32.7008552907244,-91.8282133665745,71.7660462299834
4.00451656375177,-19.1684453691003,-25.7173396491424,8.70108726571063,-29.6603970533862,-39.7689614562704,-15.7035381531112,82.80369572647,-32.5756574274631,-90.5425934327809,70.4141819769462
4.31228829407189,-19.1840743691837,-25.7016136331787,8.7063371191021,-29.7231640897166,-39.841650914111,-15.6556015090738,82.9813352424462,-32.4552228589047,-89.2447883734898,69.0359121391568
4.61883185905467,-19.2021005794518,-25.6842183298173,8.70593424702718,-29.7799264850303,-39.9107123370171,-15.6019274759114,83.1632324650669,-32.3379870543876,-87.9413035405085,67.6391602380844
4.92150876452642,-19.2225149925232,-25.6649579969821,8.69987755274922,-29.8297345013824,-39.9745843567707,-15.5421616785549,83.3469858637722,-32.2220749451286,-86.6374370116903,66.2311650978118
5.2176034534925,-19.2452669871224,-25.6436430164219,8.68822576156892,-29.8716121470106,-40.0316576132571,-15.4759241905576,83.5299413715659,-32.1053216000302,-85.3371021460044,64.8182897683975
5.50435849449251,-19.2702630152322,-25.6200934496575,8.6710948442387,-29.9045635716171,-40.0802956332948,-15.4028117673678,83.7092184043341,-31.9853002740076,-84.0427242081655,63.4058883582447
5.77901274741689,-19.2973659172352,-25.5941423814926,8.64865480573092,-29.927581425948,-40.1188569080667,-15.3224016178581,83.8817419422987,-31.8593578461403,-82.7552149911021,61.9982358985879
6.03884203741273,-19.326394847865,-25.5656390199269,8.62112590474616,-29.9396572547943,-40.1457178704582,-15.2342567675952,84.0442803212602,-31.7246575552336,-81.4740234431844,60.5985211174609
6.28120180457567,-19.3571257969166,-25.5344515281471,8.58877436571276,-29.9397938819212,-40.1592964496835,-15.1379330002793,84.1934882624398,-31.5782287807691,-80.1972552933358,59.2088974732576
6.50357114087397,-19.3892926915722,-25.5004695685155,8.55190764788124,-29.927019629001,-40.1580758549318,-15.0329872916174,84.325954531552,-31.4170233758771,-78.9218510905036,57.8305845063972
6.70359757841357,-19.4225890689967,-25.4636065418804,8.51086934236277,-29.9004040930001,-40.1406282144733,-14.9189875740373,84.4382534505283,-31.2379777315143,-77.6438101429719,56.4640097362845
6.8791419565959,-19.4566703066566,-25.42380150977,8.46603377376035,-29.8590750929616,-40.1056376740175,-14.7955235937259,84.5269993012376,-31.0380793734484,-76.3584474031251,55.1089808209211
7.02832267130326,-19.4911563937465,-25.3810207923533,8.41780038577548,-29.8022362941391,-40.0519225395586,-14.6622185495124,84.588902491762,-30.8144365375178,-75.060670932497,53.7648780443515
7.14955859760625,-19.5256352220917,-25.3352592398107,8.36658798966117,-29.7291849328655,-39.9784560361785,-14.5187411449495,84.6208262382971,-30.56434891325,-73.7452686101969,52.4308578053839
7.24160997822806,-19.5596663709088,-25.2865411767069,8.3128289521407,-29.6393290080003,-39.8843852465695,-14.3648176480257,84.619842465257,-30.2853776303936,-72.4071937513908,51.1060582079399
7.30361658124598,-19.5927853575695,-25.2349210161075,8.25696339689249,-29.5322032819765,-39.769047794273,-14.2002435403685,84.5832856283481,-29.9754125588833,-71.0418401065354,49.789798001318
7.33513244829011,-19.6245083256361,-25.1804835313114,8.19943349171199,-29.4074834516417,-39.6319858501436,-14.0248943485437,84.5088031933491,-29.6327350346465,-69.6452973631939,48.4817601506149
7.33615657188756,-19.6543371407608,-25.1233437594713,8.14067789240769,-29.2649979074921,-39.4729570678401,-13.8387352795535,84.3944015428001,-29.2560741688505,-68.2145788491529,47.1821514209326
7.30715884656471,-19.6817648629393,-25.0636464977779,8.08112641420219,-29.1047365952476,-39.2919420946868,-13.641829323449,84.2384861393395,-28.84465495586,-66.7478136721667,45.8918296426062
7.24910061625692,-19.706281558636,-25.001565345104,8.02119500064988,-28.9268566170744,-39.0891483582607,-13.43434353007,84.0398948613304,-28.3982365015073,-65.2443961006354,44.6123909103795
7.16344906659828,-19.7273804077434,-24.9373012436711,7.96128105725963,-28.7316843507976,-38.8650099000162,-13.2165532095023,83.7979235512478,-27.9171388678349,-63.7050857752162,43.3462100696882
7.05218455201763,-19.744564048796,-24.8710804869388,7.90175921165509,-28.5197140145843,-38.6201831213868,-12.9888438480318,83.5123429808033,-27.4022572679231,-62.1320535755874,42.0964296768998
6.91779966205543,-19.7573510931821,-24.8031521799421,7.84297755467273,-28.2916027523885,-38.3555384308885,-12.7517105805019,83.1834066404928,-26.8550626444339,-60.5288698044058,40.8668952771257
6.76328836970913,-19.7652827275929,-24.73378516443,7.78525440720762,-28.0481624515928,-38.0721479327672,-12.5057551271794,82.8118490085905,-26.2775880463774,-58.9004338203694,39.6620382547772
6.5921229197744,-19.7679293155406,-24.663264450631,7.72887564568417,-27.7903486188139,-37.7712694675601,-12.2516801951439,82.3988742422436,-25.6724006890358,-57.2528472721318,38.4867114866794
6.40821518404733,-19.7648969048468,-24.5918872264342,7.67409260613675,-27.5192467251334,-37.4543274779084,-11.9902814505299,81.9461355441413,-25.0425601143042,-55.5932364556765,37.3459872260604
6.21585807747868,-19.755833548958,-24.5199585385638,7.62112057587055,-27.2360564845501,-37.1228912977517,-11.722437261917,81.4557057663835,-24.3915634121398,-53.9295327027836,36.2449305436186
6.0196414800639,-19.7404353543681,-24.447786755319,7.57013787501132,-26.9420745513402,-36.7786515286203,-11.4490964761879,80.9300400968696,-23.723278974938,-52.2702226707429,35.1883646087472
5.8243363691398,-19.718452170819,-24.3756789259994,7.52128552856688,-26.6386761207738,-36.423395173763,-11.1712645226379,80.371931922407,-23.0418707092928,-50.6240825048876,34.1806455163124
5.63474129617611,-19.6896928409752,-24.3039361510631,7.47466753142589,-26.3272959025733,-36.058980167165,-10.8899881714026,79.7844631749866,-22.3517150084456,-48.9999107480731,33.2254638648038
5.4554880311219,-19.6540299190654,-24.2328490738161,7.43035171127092,-26.0094089147106,-35.6873098835517,-10.60633930873,79.1709506418294,-21.6573130839964,-47.4062744173673,32.3256878037641
5.29080929677122,-19.6114037536401,-24.162693601779,7.3883711947998,-25.6865115185777,-35.3103081636677,-10.3213981287432,78.5348898443729,-20.9632014511667,-45.8512809232455,31.483258095945
5.14428153612159,-19.5618258112866,-24.0937269638228,7.34872647843031,-25.3601030817439,-34.9298953364131,-10.0362361757007,77.8798981421462,-20.2738634269255,-44.3423857390128,30.6991404983926
5.01856838664019,-19.5053811010916,-24.0261842063639,7.31138809388323,-25.0316686069349,-34.5479656539234,-9.75189970423779,77.2096586727666,-19.5936444069791,-42.8862423311143,29.9733352288213
4.91520217503339,-19.4422295494275,-23.960275227081,7.27629984092715,-24.7026626059734,-34.1663664699591,-9.4693938508788,76.5278665980295,-18.926673439171,-41.4885972582744,29.3049382057571
4.83444539400965,-19.3726061755855,-23.8961824363102,7.24338253500726,-24.3744944302825,-33.7868793946069,-9.18966810814579,75.8381789087374,-18.2767932418233,-40.1542299261882,28.692244747748
4.77526649362132,-19.2968199331836,-23.8340591226758,7.21253818889953,-24.0485152011601,-33.4112035692221,-8.91360354321916,75.144168777704,-17.6475003713516,-38.8869335615253,28.1328838821475
4.73544374231861,-19.2152511103891,-23.7740285791609,7.18365451885833,-23.7260064198225,-33.0409411378137,-8.64200210706548,74.4492851691765,-17.0418967624973,-37.6895317693023,27.623970473221
4.71178350283905,-19.1283472223331,-23.7161840187014,7.15660964228914,-23.4081702859473,-32.6775849395784,-8.37557826550445,73.7568181319969,-16.4626533710719,-36.5639236682647,27.1622628878794
4.70041549695965,-19.0366173788514,-23.66058927606,7.13127682064538,-23.096121716822,-32.3225084004177,-8.11495308793869,73.0698699337181,-15.9119861567052,-35.5111500406055,26.7443155304495
4.6971163184397,-18.9406251661814,-23.6072802585032,7.10752909936332,-22.790882033116,-31.9769575583626,-7.86065086523946,72.3913319462236,-15.391644164841,-34.5314730744263,26.3666178713781
4.69761584213186,-18.8409801385027,-23.5562670764454,7.0852437032972,-22.4933742550905,-31.6420451270501,-7.61309827252133,71.7238669891219,-14.9029090267701,-33.6244629679132,26.025714159488
4.69785483638952,-18.7383280705933,-23.5075367614005,7.06430605682007,-22.2044199317631,-31.3187464848813,-7.37262601313612,71.0698966926601,-14.4466048294155,-32.7890857381014,25.7183004916764
4.694178804011,-18.6333401736245,-23.4610564640631,7.04461330996045,-21.9247374073104,-31.0078974658124,-7.13947277270274,70.4315933622359,-14.0231170438769,-32.0237878686218,25.4412980615476
4.68346706562582,-18.526701520764,-23.4167770182281,7.02607726622828,-21.6549414169613,-30.7101938094905,-6.91379120691764,69.8108758019575,-13.6324190469116,-31.3265747879012,25.1919030975621
4.66320483518223,-18.4190989674246,-23.3746367523349,7.0086266263693,-21.3955438982244,-30.4261921049459,-6.69565562151394,69.2094085681059,-13.2741047028268,-30.6950814640548,24.9676152351995
4.63150974990963,-18.3112088821925,-23.3345654255383,6.99220848699248,-21.1469558991844,-30.1563120489871,-6.48507098605109,68.6286041622445,-12.947425482922,-30.1266345318399,24.7662469120758
4.5871245498543,-18.2036850265327,-23.2964881577282,6.97678906413763,-20.909490462484,-29.9008398527684,-6.28198292970311,68.0696277333292,-12.6513306919482,-29.618306255356,24.585916892206
4.52938602105281,-18.0971469303557,-23.2603292152203,6.96235364741939,-20.6833663632004,-29.6599326676192,-6.08628836336463,67.5334039331404,-12.3845095401691,-29.1669612464677,24.4250312477111
4.45817814478672,-17.9921691025422,-23.2260155111358,6.94890582548052,-20.4687125817808,-29.4336239485997,-5.89784634701453,67.0206256445497,-12.1454340027871,-28.7692972256857,24.2822550806998
4.37387532498057,-17.8892713890782,-23.1934796867523,6.93646605142801,-20.2655733966065,-29.2218297086112,-5.71648879512872,66.5317643553752,-11.932401584407,-28.4218812870405,24.156478027003
4.27727988541712,-17.788910748527,-23.1626626593617,6.92506963346196,-20.0739139809361,-29.0243556202291,-5.54203062303808,66.0670819668884,-11.7435772184983,-28.1211831660669,24.0467762633119
4.169556789017,-17.6914746597508,-23.133515551609,6.91476424309526,-19.8936263865658,-28.8409048982692,-5.37427900466802,65.6266438108583,-11.5770335953853,-27.8636069363242,23.9523734295474
4.05216767295234,-17.5972763153409,-23.1060009521724,6.90560703820961,-19.7245357973987,-28.671086861892,-5.21304152037354,65.2103326258679,-11.4307892740544,-27.6455223766142,23.872602590254
3.92680572088724,-17.506551690509,-23.0800934925334,6.89766150668226,-19.5664069465062,-28.5144260499893,-5.05813307947281,64.8178632363584,-11.3028440246793,-27.4632969604868,23.8068710596682
3.79533251464924,-17.4194585143815,-23.0557797557485,6.89099414879008,-19.418950611898,-28.370371755715,-4.90938156697683,64.4487976952178,-11.1912109638098,-27.3133290415571,23.7546295863631
3.65971774631668,-17.3360771109446,-23.0330575593597,6.88567112867791,-19.2818301360623,-28.2383078535825,-4.76663217514521,64.1025606857871,-11.0939451572216,-27.1920823790436,23.7153470421239
3.52198247184392,-17.2564130217932,-23.0119346761209,6.88175503109271,-19.1546679452972,-28.1175628104212,-4.62975035491656,63.7784550180928,-11.0091684601512,-27.0961217090744,23.6884913931164
3.38414641106425,-17.180401273504,-22.9924270733668,6.87930185373548,-19.0370520656469,-28.0074197942631,-4.49862329725051,63.4756770860265,-10.9350904488643,-27.0221486464746,23.6735173296942
3.24817962495923,-17.1079121102992,-22.9745567646921,6.87835834429361,-18.9285426314203,-27.907126816348,-4.37315986582515,63.1933321743891,-10.870025400783,-26.9670368059528,23.6698604505568
3.11595872423045,-17.0387579793548,-22.9583493762195,6.8789597559645,-18.828678356211,-27.8159068525271,-4.25328896390652,62.93044951854,-10.8124054257246,-26.9278646711465,23.6769373220229
2.98922759471082,-16.9727015330414,-22.9438315337475,6.88112805382939,-18.7369828933209,-27.7329678842914,-4.13895642052249,62.6859970229108,-10.7607900180744,-26.9019444603834,23.6941501344892
2.86956249290985,-16.9094643999222,-22.9310281753723,6.88487056794988,-18.6529709689309,-27.6575127748792,-4.03012060928178,62.4588955341456,-10.7138724260298,-26.8868451307544,23.720894208225
2.75834131058643,-16.8487364729052,-22.919959886059,6.89017906672963,-18.576154143581,-27.5887488588755,-3.9267471511298,62.248032542477,-10.6704832618649,-26.8804078436166,23.756566425624
2.65671687618351,-16.7901854654402,-22.9106403380166,6.8970292180814,-18.5060460543145,-27.5258970885422,-3.82880317042735,62.0522751634312,-10.6295917074502,-26.8807527386585,23.8005728619782
2.56559438336482,-16.7334664924261,-22.9030739083609,6.90538041115175,-18.4421670107019,-27.4682005615232,-3.73625163176399,61.8704822480295,-10.5903045627919,-26.8862766201482,23.8523343643007
2.48561340049933,-16.6782314414578,-22.8972535376394,6.91517592026508,-18.3840478565509,-27.4149322570037,-3.64904626203594,61.7015154926849,-10.5518633057892,-26.895641926593,23.9112893986956
2.41713534063137,-16.6241379142251,-22.8931588891576,6.9263433994551,-18.3312330564688,-27.3654018239543,-3.56712747378634,61.544249463758,-10.5136392972461,-26.9077579733315,23.976894000743
2.36023761019017,-16.5708575393915,-22.8907548652765,6.9387956970822,-18.2832830125817,-27.3189612884105,-3.49041958299319,61.3975805007643,-10.4751272607097,-26.921755887768,24.0486190614579
2.31471572423083,-16.5180834879622,-22.8899905282203,6.95243197514863,-18.2397756530392,-27.2750095764763,-3.4188294808979,61.2604345044454,-10.4359371776175,-26.9369589118501,24.1259454556675
2.28009433833804,-16.465537059357,-22.8907984577444,6.96713910959301,-18.2003073564819,-27.2329957890562,-3.35224678906773,61.131773648761,-10.3957847629993,-26.9528498481638,24.2083576816858
2.25564739480597,-16.4129732486858,-22.893094558455,6.98279333998707,-18.164493287181,-27.19242121392,-3.29054540956463,61.0106020841673,-10.3544807282143,-26.9690374113539,24.2953367548712
2.24042657589953,-16.3601852488398,-22.8967783097569,6.99926213221901,-18.1319672199068,-27.1528401175645,-3.23358628212679,60.8959707307012,-10.3119190951022,-26.9852231538275,24.3863531065052
2.23329628530993,-16.3070078801736,-22.9017334343674,7.01640621542003,-18.102380938724,-27.1138594188915,-3.18122107532246,60.7869812976854,-10.2680648966592,-27.0011704802995,24.4808601960164
2.23297272745837,-16.2533199721302,-22.9078289483621,7.03408175207118,-18.0754033041078,-27.0751374040555,-3.13329646480078,60.6827897100037,-10.2229416742334,-27.0166770456184,24.578289454675
2.23806448565173,-16.1990457437315,-22.9149205477807,7.05214259630037,-18.0507190968217,-27.0363816911794,-3.08965858932944,60.5826091609545,-10.1766192472591,-27.0315515445897,24.678047050945
2.2471122957241,-16.1441552444968,-22.9228522839683,7.07044259003237,-18.0280277589764,-26.9973466872259,-3.05015723422531,60.485713038304,-10.1292022710106,-27.0455955696015,24.7795128133899
2.25862630985431,-16.0886639271197,-22.9314584791519,7.08883784042518,-18.0070421561676,-26.9578307857866,-3.01464929787221,60.3914379717264,-10.0808200835654,-27.0585908514827,24.882041471657
2.2711198353515,-16.0326314315386,-22.940565830367,7.10718891561739,-17.987487477383,-26.917673522991,-2.98300118022722,60.2991872182226,-10.0316182488108,-27.0702918168251,24.9849661772149
2.28313914632282,-15.9761596687298,-22.9499956411016,7.12536289098276,-17.969100374373,-26.8767528438691,-2.95508988743426,60.2084345435221,-9.98175203941265,-27.0804230092159,25.0876040533551
2.29328941892021,-15.9193903012804,-22.9595661080996,7.14323517660664,-17.9516284230157,-26.834982559723,-2.93080281704088,60.1187286935148,-9.93138193502156,-27.0886806066964,25.1892633439139
2.30025713172739,-15.8625017246707,-22.9690945814867,7.16069105895552,-17.9348299664822,-26.7923100249076,-2.91003631117969,60.0296984991232,-9.88067110065045,-27.0947371384013,25.2892516514574
2.30282945169444,-15.8057056560131,-22.9783997160273,7.17762689553098,-17.9184743725794,-26.7487140321636,-2.89269312410407,59.9410586206327,-9.82978476867518,-27.0982486121932,25.3868848127782
2.29991126161333,-15.7492434340038,-22.9873034434603,7.19395091089878,-17.9023427064129,-26.7042029051723,-2.87867896896565,59.8526159014278,-9.77889144088305,-27.0988635137312,25.48149609973
2.29054064383835,-15.6933821242668,-22.9956327190255,7.20958355558679,-17.8862287883329,-26.658812744791,-2.86789831320988,59.7642762586499,-9.72816581731547,-27.0962333473098,25.5724455500337
2.27390387357191,-15.6384105093659,-23.0032210227134,7.22445740460801,-17.8699405804551,-26.6126057625579,-2.86024959745398,59.6760519905025,-9.67779332725088,-27.0900244633969,25.6591292563649
2.24935134403713,-15.5846350263045,-23.0099096188768,7.23851658870285,-17.8533018247289,-26.5656686175788,-2.85562006642028,59.5880693300974,-9.62797608181072,-27.0799308841149,25.7409883782566
2.2164163985229,-15.5323757010559,-23.0155485912603,7.25171576922115,-17.836153840142,-26.518110663737,-2.85388042379379,59.500576024513,-9.57893999443461,-27.0656877610408,25.8175175397724
2.17483984758635,-15.4819621226374,-23.0199976743147,7.26401868758403,-17.8183573738834,-26.4700620113745,-2.85487955058905,59.4139486655505,-9.53094273533249,-27.0470850239383,25.8882721980711
2.1246040927139,-15.4337294983022,-23.0231268997033,7.27539634114114,-17.7997943905445,-26.4216713079381,-2.85843954939756,59.328699450457,-9.48428210824467,-27.0239807277274,25.9528745618378
