Finger Velocity,Scap_X,Scap_Y,Scap_Z,Shoulder horiz abd-adduction,Shoulder flexion-extension,Shoulder internal-external rotation,elbow flexion-extension,forearm pronation-supination,wrist flexion-extension,wrist radial-ulnar deviation
0.900793940977007,-20.2292982865919,-16.6601737444258,5.08129840952175,-29.82434666066,-52.2298308194894,-14.1709542468466,80.5581281963564,-30.4704301705786,-51.2974527174624,26.9480609273576
1.04389167465597,-20.2248814739105,-16.6595792637341,5.06386721967245,-29.7833266467674,-52.218735641211,-14.1378601248551,80.5557926468793,-30.1394387014106,-50.8178338885099,26.5447148251913
1.19384176896776,-20.2216814233845,-16.6587766574253,5.04335656756292,-29.7392555571949,-52.2081496208807,-14.1010279671618,80.5583804022097,-29.8013418966347,-50.2691040553987,26.0713354349325
1.34971813125683,-20.2196848068835,-16.6575834086286,5.01958757906698,-29.6916087891662,-52.1980301353403,-14.060183903263,80.5655371299215,-29.4577097571415,-49.6618926464631,25.537434596218
1.51054134410059,-20.2188477368162,-16.6558216182072,4.99240766980874,-29.6398465014832,-52.1882901940508,-14.0150743732845,80.5768018110636,-29.1101413890929,-49.0086463253392,24.9543172248308
1.67528435596575,-20.2190952973437,-16.6533215302976,4.96169580979417,-29.583424384951,-52.1787946088809,-13.9654715352785,80.5916117519623,-28.7602383836133,-48.3229953778055,24.3344705223342
1.84288195799125,-20.2203220070303,-16.6499247934906,4.92736711339253,-29.5218041870939,-52.1693570472496,-13.911177560814,80.6093092934808,-28.4095776015697,-47.6190573308642,23.6908918518589
2.01224259839137,-20.2223932311226,-16.6454873974388,4.8893766028393,-29.4544637185294,-52.1597380692723,-13.852027710578,80.6291499766556,-28.0596839853424,-46.9107454979426,23.0364221886515
2.18226161639236,-20.2251475314884,-16.639882236686,4.84772202116915,-29.3809061345858,-52.1496442151577,-13.7878921436413,80.6503119250057,-27.7120040368351,-46.2111463740981,22.3831482082555
2.35183524746917,-20.2283999103151,-16.6330012673369,4.80244560142781,-29.3006683435262,-52.1387281765665,-13.7186764710315,80.6719062228776,-27.3678805967583,-45.5320159533921,21.7419221671165
2.5198748984086,-20.231945870976,-16.624757237918,4.75363473350571,-29.2133284318007,-52.1265900548249,-13.6443211146732,80.6929880912165,-27.028529527206,-44.8834247712817,21.122028458246
2.68532127816288,-20.2355661880157,-16.6150849907186,4.70142150701381,-29.1185120178285,-52.1127796790741,-13.5647995751086,80.7125686775594,-26.6950188387923,-44.2735595190726,20.5310038646876
2.8471580294333,-20.2390322492033,-16.603942340114,4.64598114753628,-29.0158974564739,-52.0967999296485,-13.4801157449098,80.7296272800917,-26.3682507222106,-43.7086698460607,19.9745994875313
3.00442455183456,-20.2421118072247,-16.5913105371038,4.58752940331411,-28.9052198228801,-52.078110990034,-13.3903004288783,80.7431238132964,-26.0489468531815,-43.1931354754908,19.4568590482157
3.15622774810921,-20.2445749590509,-16.5771943251037,4.52631897650718,-28.7862736090514,-52.0561354386901,-13.2954072452393,80.7520112983054,-25.7376372525647,-42.7296220688306,18.9802817574076
3.30175246403987,-20.2462001587452,-16.5616215848705,4.46263512364011,-28.6589140730196,-52.0302640894297,-13.1955080834188,80.7552481337836,-25.4346529078054,-42.3192936160963,18.5460374319027
3.44027043219325,-20.2467800632639,-16.5446425613896,4.39679057315822,-28.5230571972287,-51.9998624909623,-13.0906882888539,80.7518098830049,-25.1401222958902,-41.9620526752143,18.1542052168296
3.57114757001336,-20.2461270089306,-16.5263286664847,4.32911992715978,-28.3786782497635,-51.9642779968835,-12.9810417431519,80.7407003075404,-24.8539718849708,-41.6567855204408,17.8040131441477
3.69384952399174,-20.2440779193519,-16.5067708595075,4.25997373237382,-28.2258090029716,-51.9228473127245,-12.8666660152903,80.7209613936928,-24.5759306282514,-41.4015955964662,17.4940622364593
3.80794539323588,-20.240498456266,-16.4860776241333,4.1897124233794,-28.0645337438709,-51.8749044141473,-12.7476577761982,80.69168215737,-24.3055383999914,-41.1940146053042,17.2225249212765
3.9131096070789,-20.2352862454593,-16.4643725793931,4.11870035618566,-27.8949842963348,-51.8197887107487,-12.6241086877095,80.6520060735129,-24.0421582592419,-41.0311855447656,16.9873126039508
4.00912197166018,-20.2283730409456,-16.4417917840786,4.04730015376948,-27.7173343460732,-51.7568533096783,-12.4961019824689,80.6011370489895,-23.7849923580614,-40.9100158423316,16.7862111268229
4.09586593884817,-20.2197257311731,-16.4184808125178,3.97586756530969,-27.5317933945957,-51.6854732221281,-12.3637099257265,80.538343933915,-23.5331012333019,-40.827301356567,16.6169854959034
4.17332518666291,-20.2093461394813,-16.3945916943975,3.90474699414571,-27.3386006590865,-51.6050533598582,-12.2269922869252,80.4629636398831,-23.2854261370648,-40.779823559529,16.477456807366
4.24157863270784,-20.1972696244962,-16.3702798201389,3.83426778738028,-27.1380191933493,-51.5150361865131,-12.0859958643475,80.3744030005131,-23.0408139792576,-40.7644228828142,16.3655549826117
4.30079403032111,-20.1835625400858,-16.3457009151245,3.7647413199756,-26.9303304514624,-51.4149089132147,-11.9407550247816,80.2721395643692,-22.7980443833102,-40.7780512896616,16.2793510079361
4.35122032058109,-20.1683186642138,-16.3210081814615,3.69645885631651,-26.7158294609396,-51.3042101540882,-11.79129315381,80.1557215460884,-22.5558582926711,-40.8178069119049,16.2170721442811
4.393178931447,-20.1516547486046,-16.2963496969733,3.62969012998997,-26.4948207142127,-51.1825359815606,-11.6376248574649,80.0247671741435,-22.3129875068283,-40.8809532884049,16.1771032294069
4.42705422784145,-20.13370537562,-16.2718661485219,3.5646825467691,-26.267614827007,-51.0495453402704,-11.479758711667,79.8789636627003,-22.0681844704834,-40.9649255018084,16.1579768708072
4.45328332324172,-20.1146173348265,-16.2476889598556,3.50166089133728,-26.0345259576856,-50.9049647896539,-11.3177003291651,79.7180660040564,-21.8202515943033,-41.0673253998361,16.1583550931911
4.4723454644286,-20.0945437488637,-16.2239388533923,3.44082740869086,-25.7958699377113,-50.7485925491864,-11.1514555089711,79.5418957337067,-21.5680693610411,-41.1859081039846,16.1770048691356
4.48475119679483,-20.0736381851537,-16.200724862946,3.38236213470262,-25.5519630282027,-50.5803018207962,-10.9810332490006,79.3503397694807,-21.3106224773089,-41.3185620813883,16.212769872452
4.4910315086662,-20.0520489852898,-16.1781437922786,3.32642336365485,-25.3031211901658,-50.4000433646627,-10.8064484376966,79.1433493755264,-21.0470233753324,-41.4632850763884,16.2645406658735
4.49172714033258,-20.0299140273152,-16.1562800928761,3.27314816052665,-25.0496597386654,-50.2078473102525,-10.6277240938428,78.9209392562614,-20.7765324487838,-41.6181580963366,16.3312253157601
4.48737822805022,-20.0073561090334,-16.1352061134196,3.22265284889277,-24.7918932469233,-50.0038241939245,-10.44489309069,78.6831867492133,-20.4985745100881,-41.781319433255,16.4117221334523
4.47851443644492,-19.9844791053529,-16.1149826542991,3.17503342880361,-24.5301355790798,-49.7881652247567,-10.2579993742951,78.4302310623771,-20.2127510662008,-41.9509404375901,16.5048959280391
4.46564571584855,-19.9613650118024,-16.095659746323,3.1303659023023,-24.2646999636134,-49.5611417874734,-10.0670987607088,78.162272494911,-19.9188481175782,-42.1252044830132,16.6095588530068
4.44925380537466,-19.93807194239,-16.0772775669931,3.08870650653129,-23.9958990683478,-49.3231041938526,-9.87225946435988,77.8795715923816,-19.6168393010489,-42.3022902814118,16.7244566468228
4.42978458896215,-19.9146331062262,-16.0598674117142,3.0500918733418,-23.7240450867246,-49.0744796931189,-9.67356255903487,77.5824482148383,-19.3068843377021,-42.4803604329718,16.8482608119518
4.40764140075614,-19.8910567469373,-16.0434526490832,3.01453914796843,-23.449449876818,-48.8157697495238,-9.47110259304498,77.2712805233841,-18.9893229119566,-42.6575558338075,16.9795670531741
4.383179368081,-19.8673269941904,-16.0280496046328,2.98204610740825,-23.1724252019693,-48.5475465932715,-9.26498856755268,76.9465039041149,-18.6646642807859,-42.831996278005,17.1169000704433
4.35670087431723,-19.8434055490567,-16.0136683321474,2.9525913221063,-22.8932831067914,-48.270449051476,-9.05534544408912,76.6086098432507,-18.3335730728221,-43.001787229485,17.2587245177506
4.3284522190617,-19.819234104398,-16.0003132446269,2.92613440348348,-22.6123364321845,-47.9851776709255,-8.84231628197986,76.2581447486617,-17.9968518659935,-43.165032328586,17.4034616044662
4.29862154740978,-19.7947373862995,-15.9879835893673,2.90261637671521,-22.3298994389673,-47.6924891535332,-8.62606502970552,75.8957086861496,-17.6554212103574,-43.3198508599287,17.5495105201235
4.26733811217909,-19.7698266909608,-15.9766737651311,2.88196021418035,-22.0462884816243,-47.3931901367333,-8.40677991441612,75.5219539676905,-17.3102977854389,-43.4643992367042,17.6952736884517
4.23467292057883,-19.7444037827867,-15.9663734937361,2.86407155966035,-21.7618226546553,-47.0881303653431,-8.18467729316273,75.1375834993687,-16.9625713675456,-43.596895527489,17.8391847931779
4.2006407987586,-19.718365014258,-15.9570678710535,2.8488396658222,-21.4768243220887,-46.7781953219646,-7.96000574905566,74.7433487786827,-16.6133812594914,-43.7156460710526,17.9797385023955
4.16520388305316,-19.6916055277158,-15.9487373306487,2.83613855740181,-21.1916194374665,-46.4642984125617,-7.73305014395288,74.3400474354373,-16.2638928175071,-43.8190732328781,18.1155208123975
4.12827651565245,-19.6640234038954,-15.9413575561763,2.82582842024251,-20.9065375754128,-46.1473728403685,-7.50413529315536,73.9285202427744,-15.9152746922722,-43.9057433655771,18.2452389529405
4.0897314859019,-19.6355236306948,-15.9348993765782,2.81775720392438,-20.6219116316375,-45.8283633358527,-7.27362892179158,73.5096475760268,-15.5686773669367,-43.9743940861174,18.3677498771571
4.04940751839774,-19.6060217766483,-15.9293286720485,2.81176241611712,-20.338077196513,-45.5082179294871,-7.04194359916233,73.0843453452345,-15.2252135129949,-44.023960092345,18.4820865030204
4.00711786808315,-19.5754472667044,-15.9246063108284,2.807673081826,-20.0553716497385,-45.1878799466324,-6.80953741429162,72.6535604539747,-14.8859405945054,-44.0535968793894,18.5874810395161
3.96265984363124,-19.5437461735692,-15.9206881304661,2.80531184043734,-19.7741330479403,-44.8682803693527,-6.57691323460444,72.2182658423199,-14.5518460409852,-44.0627018306736,18.6833848626155
3.91582504647467,-19.510883455241,-15.9175249743853,2.80449715702924,-19.4946988849202,-44.5503306602244,-6.34461646523158,71.7794551681578,-14.2238351928185,-44.0509322138531,18.7694844717992
3.86641008650159,-19.4768445872258,-15.9150627954402,2.80504562897005,-19.2174048018571,-44.2349160960347,-6.11323129264841,71.3381371766798,-13.9027221146331,-44.0182196141188,18.8457130785971
3.81422751863109,-19.4416365563086,-15.9132428416115,2.80677436878903,-18.9425833116614,-43.9228896279024,-5.88337545124543,70.8953297997607,-13.5892232824252,-43.9647803240492,18.9122574140758
3.75911673831587,-19.4052882022054,-15.9120019437476,2.80950343509565,-18.6705625759935,-43.6150662704074,-5.65569359540456,70.4520540136945,-13.2839540811394,-43.8911212261463,18.9695594423159
3.70095457868097,-19.3678499135436,-15.9112729288846,2.81305826629389,-18.4016652421293,-43.3122180191137,-5.43084939884839,70.0093274716281,-12.9874279917721,-43.7980407780634,19.0183128393811
3.63966536676283,-19.3293927045713,-15.9109851822576,2.81727205352675,-18.1362073210204,-43.0150692964776,-5.20951654646536,69.5681579221379,-12.7000582850573,-43.6866248392623,19.0594543106866
3.5752302195742,-19.2900067182534,-15.9110653747547,2.82198797678579,-17.874497073596,-42.7242929278828,-4.99236883531671,69.1295364288785,-12.4221619620778,-43.558237237971,19.094150023451
3.50769539012497,-19.2497992189301,-15.911438360348,2.82706122630975,-17.6168338710114,-42.4405066535039,-4.78006965775253,68.694430418849,-12.1539655960765,-43.414505140736,19.123777580842
3.43717950600049,-19.2088921514731,-15.9120282321207,2.83236074162366,-17.3635070047364,-42.1642701891259,-4.57326119230179,68.2637766095325,-11.8956126526947,-43.2572994361497,19.1499040471553
3.36387957487556,-19.1674193524017,-15.9127595097842,2.83777061941364,-17.1147944373733,-41.896082858405,-4.37255366550961,67.8384738934592,-11.6471718161152,-43.0887104753567,19.1742605678011
3.28807565795678,-19.1255235018925,-15.913558420485,2.84319116204228,-16.8709614948699,-41.6363818263448,-4.17851505862051,67.419376282666,-11.4086458337399,-42.9110196224895,19.1987141383689
3.21013412861068,-19.0833529048425,-15.9143542308584,2.84853955463092,-16.6322594991222,-41.3855409657499,-3.99166161190261,67.0072860285506,-11.1799804085171,-42.7266671516377,19.2252370714392
3.13050943347657,-19.0410581851633,-15.9150805912056,2.85375016765432,-16.3989243283146,-41.1438703854135,-3.81244943148829,66.6029470382606,-10.9610727095059,-42.538217079473,19.2558746833243
3.04974425088071,-18.9987889724433,-15.9156768593952,2.85877448556998,-16.1711748778249,-40.9116166430135,-3.64126744143032,66.2070387155322,-10.7517791344803,-42.3483195490639,19.2927116723896
2.96846789029395,-18.9566906568942,-15.9160893790346,2.86358066486532,-15.9492113856544,-40.6889636573459,-3.47843186028925,65.8201703644907,-10.5519220413919,-42.1596713898644,19.3378375927484
2.88739269248734,-18.914901288318,-15.9162726906005,2.86815273188324,-15.7332135902337,-40.4760343205146,-3.32418232344904,65.4428763033099,-10.3612952647583,-41.9749754848005,19.3933117630563
2.80730807269028,-18.8735486964046,-15.9161906538818,2.87248944355871,-15.5233387091429,-40.2728927870721,-3.17867971781883,65.075611833067,-10.1796683444078,-41.7968995944838,19.4611279188683
2.72907170637935,-18.8327479106016,-15.9158174553869,2.87660285023769,-15.3197192654815,-40.0795473816603,-3.04200573800789,64.7187501929354,-10.0067895127029,-41.6280353196879,19.5431789318326
2.65359721094189,-18.7925989559314,-15.9151384673931,2.88051661361557,-15.1224608426755,-39.8959540197469,-2.91416410414325,64.3725806083653,-9.84238760319429,-41.470857888755,19.6412219602784
2.58183756779285,-18.7531850948423,-15.9141509196668,2.88426413935199,-14.9316399146918,-39.7220199815775,-2.79508329635954,64.0373075091652,-9.68617314386724,-41.327687385042,19.7568444237217
2.51476352396875,-18.7145715734083,-15.9128643438176,2.88788658218815,-14.7473019685132,-39.5576078279102,-2.68462056721018,63.7130509658703,-9.53783896664678,-41.200651867978,19.8914311834466
2.45333639630288,-18.676804912862,-15.9113007550939,2.89143077534126,-14.5694601914065,-39.4025392151386,-2.58256691318019,63.3998483699733,-9.39706069111546,-41.0916526494703,20.0461332808244
2.39847516571881,-18.6399127654568,-15.9094945465477,2.89494713040803,-14.3980950128737,-39.2565983744252,-2.48865264549388,63.0976573650236,-9.26349741975067,-41.0023318619894,20.2218385799528
2.35101855170849,-18.6039043284187,-15.9074920837893,2.89848755156497,-14.2331547566827,-39.1195350679491,-2.40255321111354,62.8063600150087,-9.13679291589887,-40.9340424414662,20.4191447051712
2.31168386703528,-18.568771283338,-15.9053510017577,2.90210340895997,-14.0745575815293,-38.9910669107045,-2.32389497232139,62.5257681678402,-9.01657743424635,-40.8878207291747,20.6383347668826
2.28102569660264,-18.5344892041492,-15.9031392151156,2.90584361945326,-13.922194791183,-38.8708810283469,-2.2522607418289,62.2556299335692,-8.90247025678679,-40.8643620815944,20.8793565825711
2.25939849180924,-18.501019358384,-15.9009336600725,2.90975288550495,-13.7759354910061,-38.7586350993924,-2.18719497169616,61.9956371533288,-8.79408288081537,-40.8640002092736,21.1418064656759
2.24692760537484,-18.4683108149288,-15.8988187890226,2.91387014285931,-13.6356324610792,-38.65395790283,-2.12820859318119,61.7454336942059,-8.69102272971434,-40.8866913985697,21.4249190734813
2.24349277190653,-18.4363027658461,-15.8968848426191,2.91822726407587,-13.5011290076867,-38.5564495614002,-2.0747835901416,61.5046243749744,-8.59289721875344,-40.9320051365162,21.7275650540592
2.24872650134623,-18.4049269686613,-15.8952259283072,2.92284805731421,-13.3722664501865,-38.4656817340085,-2.02637745228841,61.272784312221,-8.49931800018532,-40.99912279705,22.0482581417744
2.26202761364301,-18.3741102184447,-15.8939379399279,2.92774758762837,-13.2488918158417,-38.3811980574883,-1.98242768772598,61.0494684775281,-8.40990522107066,-41.0868459061188,22.385172918357
2.28258782193786,-18.3437767655545,-15.8931163588916,2.93293183238691,-13.1308652748033,-38.3025151527074,-1.94235657157876,60.8342212726371,-8.32429164136509,-41.19361513552,22.7361738092551
2.30942753063105,-18.3138506044899,-15.8928539829857,2.93839766509175,-13.0180668601717,-38.2291244876124,-1.90557627642576,60.6265859545453,-8.24212647792977,-41.3175406595936,23.0988551685122
2.34143627408368,-18.2842575718639,-15.8932386341656,2.94413314387998,-12.910402063751,-38.1604953441929,-1.87149449023324,60.4261137657376,-8.16307887186797,-41.4564438901085,23.4705916011349
2.37741351302691,-18.2549272068331,-15.8943509015729,2.95011806367046,-12.8078059486944,-38.0960790837361,-1.83952059278954,60.2323726360364,-8.08684092397685,-41.6079098994295,23.8485970008768
2.41610653057254,-18.225794344445,-15.8962619796669,2.95632471696375,-12.7102454710284,-38.0353148425789,-1.80907242752551,60.0449553180516,-8.01313029002766,-41.7693490839636,24.2299901581067
2.4562434901945,-18.1968004297623,-15.8990316631042,2.96271880033287,-12.6177197707626,-37.9776367026117,-1.77958365690203,59.8634868053958,-7.94169235461098,-41.938065873566,24.6118642499365
2.49656094934348,-18.1678945564634,-15.9027065598041,2.96926040298101,-12.5302582973533,-37.9224822580813,-1.75051161933454,59.6876308779361,-7.87230200385748,-42.1113316358013,24.9913571078197
2.53582603749858,-18.1390342460894,-15.9073185811091,2.97590502160011,-12.4479167773852,-37.869302351377,-1.72134552316494,59.517095635042,-7.80476500098682,-42.2864584484626,25.365718932037
2.57285404385171,-18.1101859923957,-15.91288376172,2.98260456290693,-12.3707711983465,-37.8175716018919,-1.69161474063556,59.3516379165404,-7.73891894762503,-42.4608702374981,25.7323741862732
2.60652236758376,-18.0813256003541,-15.9194014509271,2.9893083178282,-12.2989101337052,-37.7667992402915,-1.66089692454621,59.1910665593314,-7.67463380261587,-42.6321679932466,26.0889748366112
2.63578176257343,-18.0524383534486,-15.9268539013909,2.99596390886002,-12.2324258323784,-37.7165397103643,-1.62882566594332,59.0352444800642,-7.6118119364943,-42.7981863424567,26.4334428494588
2.65966566088332,-18.0235190475184,-15.935206265594,3.00251821476052,-12.1714045309461,-37.6664025067214,-1.59509742473907,58.8840896033401,-7.55038771897587,-42.9570394785436,26.7640007467077
2.6772981668418,-17.994571933583,-15.9444069963997,3.00891826593438,-12.1159164425186,-37.616060754655,-1.55947747959686,58.7375746731121,-7.49032665797422,-43.1071551619755,27.0791898472122
2.68790113004494,-17.965610613123,-15.9543886378938,3.01511209126829,-12.0660058603774,-37.5652580900807,-1.52180465920438,58.5957260001808,-7.43162412744386,-43.2472961539,27.3778765255721
2.69080056152053,-17.9366579249612,-15.9650689851477,3.02104949218032,-12.0216818000464,-37.5138134586614,-1.48199464230982,58.4586212180942,-7.37430374116085,-43.3765690667014,27.6592473919572
2.68543256630488,-17.907745853252,-15.9763525861586,3.02668272295418,-11.9829095871692,-37.4616235266212,-1.44004165114803,58.3263861453062,-7.31841545264669,-43.4944211954895,27.9227947367617
2.67134893161166,-17.8789154734732,-15.9881325552192,3.03196706348057,-11.9496037710232,-37.4086624838191,-1.39601840861419,58.1991908793377,-7.26403348351005,-43.6006263814253,28.1682938700731
2.64822253197386,-17.8502169406503,-16.0002926628588,3.03686127566405,-11.9216226966984,-37.3549791220405,-1.3500742779496,58.0772452729923,-7.21125419592874,-43.6952613102707,28.3957741087906
