Finger Velocity,Scap_X,Scap_Y,Scap_Z,Shoulder horiz abd-adduction,Shoulder flexion-extension,Shoulder internal-external rotation,elbow flexion-extension,forearm pronation-supination,wrist flexion-extension,wrist radial-ulnar deviation
0.818155273489162,-21.2413280681167,-18.1062244358821,2.37563320025818,-27.0540560770472,-50.1808256167314,-12.8823982701174,80.2042064387381,-31.3044426419136,-58.6972856296219,34.5757313990356
1.02323287915719,-21.2430043395355,-18.0771235313603,2.3638653660221,-27.0416768289522,-50.1952694869694,-12.8578175482368,80.1741283004008,-31.0276031124595,-58.6403267232763,34.5666585363661
1.24241603029055,-21.2475775337852,-18.0458890294437,2.35151255254054,-27.0271167806928,-50.2071107572901,-12.8320864633169,80.1441027831069,-30.7200053966837,-58.426785736708,34.3973542781245
1.47354162865981,-21.2552650678054,-18.0126820137413,2.33850411608536,-27.0095920151811,-50.2155096981851,-12.8047892333408,80.114104564269,-30.381684339742,-58.0541889214244,34.064514632081
1.71450605113907,-21.2662392510412,-17.9776870732809,2.3247776059481,-26.988232570032,-50.2195684904603,-12.7754274217151,80.0840259762455,-30.0130171477559,-57.526481266007,33.571237766816
1.96317144053168,-21.2806207209755,-17.9411089018628,2.3102796832927,-26.9620868814554,-50.2183400710399,-12.7434183893037,80.0536668579778,-29.6147265375526,-56.8542523197266,32.9272617319575
2.21734025676143,-21.2984723279245,-17.903168646949,2.29496702024701,-26.9301286097913,-50.2108381525606,-12.708096306769,80.0227259452,-29.1878773379276,-56.0544027676702,32.1486455769957
2.47476110911441,-21.3197936175824,-17.8641001299763,2.27880721746633,-26.8912660675438,-50.1960482293278,-12.6687162087384,79.9907941847458,-28.7338664966988,-55.1492270304285,31.2568698137321
2.73315047806042,-21.3445160555971,-17.8241460565412,2.26177975499706,-26.8443543921778,-50.1729393701809,-12.624461464179,79.9573503218894,-28.2544065854203,-54.1649777308713,30.277422690015
2.99022305044496,-21.3724991286706,-17.7835543298233,2.24387696929192,-26.788210511043,-50.1404765920012,-12.5744548948438,79.9217590579254,-27.7515030313217,-53.1300681771419,29.2380288871855
3.24372671050086,-21.4035274466838,-17.7425745707327,2.225105031678,-26.7216308349398,-50.0976336066342,-12.5177736069978,79.8832720070709,-27.2274254492974,-52.0731340609816,28.1667419940533
3.49147968377819,-21.4373089650353,-17.7014549312422,2.2054848859427,-26.6434114819684,-50.043405741624,-12.4534674113444,79.8410315969149,-26.68467359518,-51.0211953506505,27.0901414238851
3.73140800982946,-21.4734744466055,-17.6604392637775,2.18505308213269,-26.5523706723713,-49.976822851921,-12.3805804948789,79.7940779565296,-26.125938608094,-49.9981279717908,26.0318424540314
3.96158186031785,-21.5115782847879,-17.6197646822364,2.16386242502432,-26.4473727640426,-49.8969620612759,-12.2981757907569,79.7413587264908,-25.5540603427667,-49.0235835174933,25.0114560353615
4.18024941152308,-21.5511008059243,-17.5796595232652,2.14198234823042,-26.3273532472031,-49.8029601910721,-12.2053612897226,79.6817416176506,-24.971981701939,-48.112406967236,24.0440460801271
4.38586711130658,-21.5914521536231,-17.5403416939567,2.11949893467772,-26.1913439137074,-49.6940257469179,-12.1013173687246,79.6140294574309,-24.3827009613207,-47.2745218584628,23.1400508284022
4.57712529321338,-21.6319778241185,-17.5020173764599,2.09651452987019,-26.0384973757593,-49.5694503433,-11.985324092109,79.5369774069533,-23.7892231392604,-46.5151964957894,22.3055786728544
4.75296820681531,-21.6719658716656,-17.4648800505894,2.07314692847701,-25.8681101300673,-49.4286194636483,-11.856787375036,79.4493120128598,-23.1945115080676,-45.8355790226309,21.542963010019
4.91260766614032,-21.7106557412765,-17.4291097907044,2.04952814846846,-25.6796434372753,-49.2710224842583,-11.7152628908652,79.3497517681813,-22.6014403788338,-45.2333892584925,20.8514610984789
5.05552967476341,-21.7472486204584,-17.3948727915103,2.02580283362615,-25.4727413973923,-49.0962619339281,-11.5604766572088,79.2370288850801,-22.012750313562,-44.7036719604857,20.2279994013873
5.18149357201335,-21.7809191388772,-17.3623210778141,2.00212634219218,-25.2472457270049,-48.904062002456,-11.39234135118,79.1099120095497,-21.43100691352,-44.2395401276637,19.6678929358445
5.29052346333877,-21.8108281894087,-17.3315923545046,1.97866258810313,-25.0032068514569,-48.6942763198472,-11.2109675792864,78.9672296029553,-20.8585642759712,-43.8328610763756,19.1654915276322
5.38289195118963,-21.8361365984173,-17.3028099551115,1.95558170435954,-24.7408909867595,-48.466894972968,-11.0166695491601,78.8078936463162,-20.2975340788573,-43.4748583626382,18.7147274544451
5.45909647064983,-21.8560193390942,-17.2760828517161,1.93305759739557,-24.4607829079615,-48.2220506149398,-10.8099648420204,78.6309231970137,-19.7497610513053,-43.1566178782502,18.3095552381226
5.51982885299464,-21.8696799598562,-17.2515056974942,1.9112654578423,-24.1635841317013,-47.9600234143965,-10.5915682502794,78.4354672034299,-19.2168053628708,-42.8694968446317,17.9442854555514
5.56593908191151,-21.8763648896024,-17.2291588859538,1.89037928704467,-23.8502063289889,-47.6812445475733,-10.3623799095445,78.2208259238723,-18.6999322557432,-42.6054409231782,17.613821298846
5.59839455629574,-21.8753772824915,-17.2091086259727,1.87056948991176,-23.5217599356923,-47.3862979630481,-10.1234682052365,77.9864703134136,-18.20010904325,-42.3572183269326,17.3138103203125
5.61823650746592,-21.8660900763521,-17.1914070454659,1.85200057459787,-23.1795381159588,-47.0759202102693,-9.87604815875987,77.7320588044674,-17.7180093738656,-42.1185815440841,17.0407252827683
5.62653550654141,-21.8479579599803,-17.1760923451483,1.83482899072627,-22.8249964294787,-46.7509981845286,-9.62145618332146,77.4574509831605,-17.2540244066957,-41.8843677110679,16.7918880117296
5.62434820258325,-21.8205279740327,-17.1631890247929,1.81920113101571,-22.4597287372612,-46.4125646912081,-9.36112223044188,77.1627177417668,-16.8082802842962,-41.6505482801291,16.5654491784372
5.61267751489123,-21.7834485060762,-17.1527081974337,1.80525151521438,-22.085440039372,-46.0617917740322,-9.09654041430097,76.8481475668957,-16.3806610459165,-41.4142377817484,16.3603354955469
5.59243842911576,-21.7364764802624,-17.1446479945205,1.79310117087652,-21.7039170665128,-45.6999817920123,-8.8292392021175,76.5142487074344,-15.9708359147654,-41.1736704106847,16.1761741913656
5.56443129486856,-21.6794825838634,-17.1389940506085,1.78285622525528,-21.3169975447453,-45.3285562726183,-8.56075220415117,76.1617470617177,-15.5782897326572,-40.9281519449209,16.0132029844302
5.52932409126285,-21.6124544151459,-17.1357200427836,1.77460672733148,-20.9265391149973,-44.9490426168669,-8.29259049763873,75.7915797357022,-15.2023552257229,-40.6779931715697,15.8721721613871
5.48764454118102,-21.5354974793907,-17.1347882501562,1.76842572574889,-20.534388905888,-44.5630587860367,-8.02621728218634,75.404884354587,-14.8422457837933,-40.4244296204806,15.7542438222854
5.43978226618724,-21.4488340034112,-17.1361500946452,1.76436863106122,-20.1423547192773,-44.1722961590456,-7.76302549535638,75.0029843561749,-14.4970875246523,-40.1695311170187,15.660891970529
5.38600045335929,-21.3527995854911,-17.1397466276768,1.76247288384636,-19.7521786900746,-43.7785008124354,-7.50431882625547,74.5873706468434,-14.1659495767194,-39.9161035679573,15.5938059527263
5.32645583333498,-21.247837747104,-17.1455089389231,1.76275793442047,-19.3655141342677,-43.3834535367988,-7.25129636796111,74.1596801452904,-13.8478717311113,-39.6675845441218,15.554798830811
5.2612252205546,-21.134492502061,-17.1533584810974,1.7652255219291,-18.9839061191569,-42.9889489574688,-7.00504096450747,73.7216718566133,-13.5418888699209,-39.4279336354043,15.5457215973906
5.19033649800567,-21.0133991052257,-17.1632073250004,1.76986022682613,-18.6087760940637,-42.5967741677961,-6.76651114734366,73.2752011945451,-13.2470518473678,-39.2015182237084,15.5683836981955
5.11380176747498,-20.8852731878055,-17.1749583775833,1.7766302609852,-18.2414107181461,-42.2086873081311,-6.53653642318052,72.8221932949058,-12.9624447497986,-38.9929952244886,15.6244800561193
5.0316504291671,-20.7508985319201,-17.1885056112219,1.78548845078897,-17.8829548217137,-41.826396532072,-6.31581556938335,72.3646160394183,-12.6871986639416,-38.8071894413763,15.7155246435806
4.94396017126428,-20.6111137816154,-17.2037343635075,1.79637336184198,-17.5344082524107,-41.4515397930123,-6.10491751870886,71.9044534469023,-12.4205022382937,-38.6489694048271,15.8427905704251
4.85088419179631,-20.4667984240728,-17.2205217710166,1.80921051397627,-17.1966262068196,-41.085665858958,-5.90428438079156,71.4436800051899,-12.1616094381596,-38.5231218856716,16.0072566172763
4.75267338530215,-20.3188583972274,-17.2387373955837,1.8239136422843,-16.8703225442718,-40.7302169252493,-5.71423615609338,70.9842364251713,-11.9098449649449,-38.4342266759887,16.2095601688101
4.64969265019812,-20.1682116852029,-17.2582440885096,1.84038596928153,-16.556075523475,-40.3865131477558,-5.53497674098754,70.5280072040284,-11.6646078158057,-38.3865337048935,16.4499566285576
4.54243086345013,-20.0157742498979,-17.2788991203784,1.85852146126155,-16.2543353868214,-40.055739364945,-5.3666008872249,70.0768002898828,-11.4253733962922,-38.3838450602196,16.7282856306525
4.4315043939978,-19.8624466173324,-17.300555584965,1.87820604900594,-15.9654332332564,-39.7389342145536,-5.20910185290991,69.6323290469465,-11.1916944939349,-38.4294049181318,17.043944642253
4.31765426666867,-19.7091013960137,-17.3230640660877,1.89931880156586,-15.6895906601115,-39.4369817799621,-5.06237955249939,69.1961966323122,-10.96320131763,-38.5258006228151,17.3958707779044
4.20173723936994,-19.5565719579156,-17.346274535416,1.92173305197659,-15.4269297093208,-39.1506058283186,-4.92624906678503,68.7698828164469,-10.7396007325462,-38.6748781343444,17.782531753872
4.08471112660688,-19.4056424653691,-17.3700384270178,1.94531748242467,-15.1774827174487,-38.8803666343515,-4.80044940363955,68.3547332122709,-10.5206747719512,-38.8776747801872,18.2019268815991
3.96761471265972,-19.2570393815941,-17.3942108133757,1.96993718041593,-14.9412017398037,-38.6266603252784,-4.68465241323475,67.951950825569,-10.3062784720631,-39.1343717735128,18.6515988654488
3.85154258072245,-19.1114245592738,-17.4186525926066,1.99545467723275,-14.7179672984562,-38.3897206338302,-4.57847177185293,67.5625898065551,-10.0963370459389,-39.4442683838881,19.1286569715851
3.73761518358985,-18.9693899596093,-17.4432325918641,2.0217309779757,-14.5075962923503,-38.1696229070088,-4.48147196462816,67.1875512706461,-9.89084238978205,-39.8057790148747,19.6298118862292
3.62694454882052,-18.8314540126529,-17.4678294972515,2.048626589604,-14.3098489987837,-37.9662901874199,-4.39317721618712,66.8275810616888,-9.68984890501034,-40.2164537664173,20.1514222615081
3.52059619959029,-18.6980595886441,-17.4923335317168,2.07600254830628,-14.1244351798268,-37.779501162317,-4.31308032942859,66.4832693450171,-9.49346862374226,-40.6730223240213,20.6895525220328
3.41954822243791,-18.5695735108939,-17.5166478146568,2.1037214397987,-13.9510193775927,-37.6088997630141,-4.24065138707903,66.1550519345467,-9.30186564295055,-41.1714602155823,21.2400409622063
3.32464893342547,-18.4462875049958,-17.5406893484765,2.13164839761246,-13.7892255357296,-37.4540061931014,-4.17534624424062,65.8432132741527,-9.11524990192179,-41.7070756324932,21.7985765376194
3.23657523827951,-18.3284204486837,-17.5643895886657,2.15965205728242,-13.638641121644,-37.3142291650456,-4.11661469875789,65.5478910064345,-8.93387037503809,-42.2746141712358,22.3607821210309
3.15579443134931,-18.2161217644152,-17.5876945662326,2.18760543903139,-13.498820947711,-37.1888791252178,-4.06390818414753,65.2690820708431,-8.75800778783142,-42.8683780645949,22.9223014356627
3.08253264678824,-18.1094757851505,-17.610564545853,2.21538672794645,-13.3692909025105,-37.0771822408703,-4.01668680372803,65.0066502791621,-8.58796698707586,-43.4823557867755,23.4788864586443
3.01675324865079,-18.008506922313,-17.6329732214156,2.24287992048562,-13.2495518029786,-36.978294909341,-3.97442552774415,64.7603353202126,-8.42406910025854,-44.1103574002445,24.0264818599206
2.95814795471969,-17.9131854702222,-17.6549064743196,2.26997531193695,-13.1390835597031,-36.8913185368338,-3.93661941167478,64.5297631460337,-8.26664361028474,-44.7461507482799,24.5613030558614
2.90614239186656,-17.8234338902752,-17.6763607488265,2.29656981073017,-13.0373498063313,-36.8153143271706,-3.90278775393813,64.3144576857398,-8.11602045602195,-45.3835936522542,25.0799047346624
2.85991622298181,-17.7391334300655,-17.6973411287616,2.32256707859263,-12.9438030810751,-36.7493178208947,-3.87247717636067,64.1138538177948,-7.97252225837002,-46.016757648868,25.579237232389
2.8184362788273,-17.6601309474253,-17.7178592228846,2.34787750719065,-12.8578905697626,-36.6923529324741,-3.84526366487175,63.927311504807,-7.83645677563897,-46.6400394327192,26.0566888491459
2.78049965603533,-17.5862458254085,-17.7379309751711,2.37241805082206,-12.7790603357447,-36.6434452492996,-3.82075364452571,63.7541309568698,-7.70810971086467,-47.2482569649693,26.5101130276427
2.74478282449655,-17.5172768783784,-17.75757450974,2.39611194064064,-12.7067678825748,-36.6016343796913,-3.79858418538285,63.5935686415015,-7.58773800786301,-47.8367280989371,26.9378402067153
2.70989257074284,-17.4530091594904,-17.776808102977,2.41888830925841,-12.6404828280222,-36.5659851647051,-3.77842245158184,63.4448539044618,-7.47556375621713,-48.4013305029899,27.3386750431309
2.67441503318258,-17.393220585811,-17.7956483544447,2.44068175633114,-12.5796954157294,-36.5355975968774,-3.7599645203044,63.3072059114309,-7.37176876800984,-48.9385425734415,27.711880491262
2.63695995478139,-17.3376882998235,-17.8141086082483,2.46143188597173,-12.5239225559967,-36.5096153173977,-3.74293370979299,63.179850572447,-7.27648981189529,-49.4454658593753,28.0571508619983
2.59619833059852,-17.2861946861253,-17.8321976589185,2.48108284466745,-12.4727130773913,-36.4872325940688,-3.72707856363774,63.062037081261,-7.18981443921105,-49.9198302013068,28.3745763746054
2.55089264025751,-17.2385329616007,-17.8499187598633,2.49958288324823,-12.4256518979701,-36.4676997189437,-3.7121706417788,62.9530537047118,-7.11177734889673,-50.3599832820582,28.6646018276952
2.49991969550456,-17.1945122590708,-17.867268937505,2.51688395857706,-12.3823628922922,-36.4503268050483,-3.69800226609278,62.8522424946921,-7.04235730588024,-50.7648666191057,28.9279818733411
2.44228676198998,-17.1539621301227,-17.8842386008254,2.53294138058009,-12.3425103240396,-36.4344859991389,-3.68438435485283,62.7590126513899,-6.9814747112433,-51.1339802345959,29.1657350571123
2.37714206838904,-17.1167364020386,-17.9008114243644,2.54771349900807,-12.3057988114777,-36.4196121571734,-3.6711444506993,62.6728523228935,-6.92898998752998,-51.4673383420674,29.3790983630749
2.30378117875536,-17.0827163350488,-17.9169644719894,2.56116141366656,-12.2719718779234,-36.4052020539938,-3.65812500269448,62.5933386762609,-6.88470297770847,-51.7654183763962,29.5694835315714
2.2216510898501,-17.0518130390294,-17.9326685186287,2.57324868379058,-12.2408092049844,-36.390812225031,-3.64518191349303,62.5201461198561,-6.84835356485916,-52.0291055515899,29.738435942509
2.13035447151709,-17.0239691234484,-17.9478885190516,2.58394100816342,-12.2121227501249,-36.3760555681451,-3.63218331928044,62.4530525964857,-6.81962370597289,-52.2596348741601,29.8875964236972
2.02965740733925,-16.9991595701268,-17.9625841688469,2.59320584792664,-12.1857519130378,-36.3605968646474,-3.61900854151347,62.3919439020973,-6.79814103556144,-52.4585322155918,30.0186659995625
1.91950567116996,-16.9773918337655,-17.9767105044651,2.60101196818284,-12.1615579435726,-36.3441474034867,-3.60554713668243,62.3368160193716,-6.7834841300703,-52.6275557143208,30.1333733733555
1.80005766232712,-16.9587051894808,-17.9902184961831,2.60732888079677,-12.1394177856107,-36.3264589060935,-3.59169796717807,62.2877754933184,-6.77518943749783,-52.7686384812507,30.2334448396032
1.6717479600838,-16.9431693597134,-18.0030555972488,2.61212617737042,-12.1192175496994,-36.3073169514118,-3.57736821530043,62.2450379158353,-6.77275978120417,-52.8838333502712,30.3205763322921
1.53540682398348,-16.9308824642933,-18.0151662204004,2.61537274741504,-12.1008458010595,-36.2865340963786,-3.5624722602163,62.2089246224539,-6.77567425430541,-52.9752602602247,30.3964074003948
1.39248364011088,-16.9219683461927,-18.0264921181178,2.6170358831381,-12.0841868378422,-36.2639428817965,-3.54693033702198,62.1798577325657,-6.78339923611335,-53.0450567802617,30.4624970409749
1.24546776776596,-16.9165733312145,-18.0369726479296,2.61708028090384,-12.0691141196159,-36.23938890855,-3.5306669047929,62.1583536847378,-6.79540018600267,-53.0953322860066,30.5203014852253
1.09868665090171,-16.9148624831648,-18.0465449121898,2.61546696211236,-12.0554839918009,-36.2127241631312,-3.51360867331046,62.1450154347406,-6.81115380780317,-53.1281263333956,30.5711541933558
0.959786801063999,-16.9170154180627,-18.0551437742539,2.61215215318988,-12.0431298405248,-36.1838007628064,-3.49568227798543,62.1405234973949,-6.83016013966266,-53.1453718261631,30.6162484400405
0.842151729637168,-16.9232217427258,-18.0627017694777,2.60708618256271,-12.031856803974,-36.1524652776951,-3.47681164382124,62.145626023839,-6.85195411817547,-53.1488636018234,30.6566229451007
0.767106882130683,-16.9336761854563,-18.0691489482997,2.60021246586463,-12.0214371586412,-36.1185537678404,-3.45691513066782,62.1611281132288,-6.87611618903227,-53.1402330506033,30.6931510214308
0.760051166681723,-16.9485734898275,-18.0744127067141,2.5914666536619,-12.0116064896837,-36.0818876479362,-3.43590259183103,62.1878805625236,-6.90228158046833,-53.1209293209053,30.7265336780251
0.835024248904122,-16.9681031467174,-18.0784176727822,2.58077600769099,-12.0020607431365,-36.0422704621597,-3.41367249971395,62.2267682586499,-6.93014791337469,-53.0922075471748,30.7572970334626
0.984472258899443,-16.9924440450988,-18.0810857239939,2.56805905597288,-11.9924542444507,-35.999485617744,-3.39010929507178,62.2786984114121,-6.95948089021556,-53.0551243634092,30.7857942684935
1.19036193079106,-17.0217591296548,-18.0823362089209,2.55322556009227,-11.9823987533153,-35.9532950886839,-3.36508110406069,62.3445888111486,-6.99011788141929,-53.0105407522266,30.812212186208
1.43720269177789,-17.056190163464,-18.0820864379701,2.53617681412166,-11.9714636093303,-35.9034390611921,-3.33843794498791,62.4253562719009,-7.02196930927551,-52.9591320486937,30.8365822718831
1.71497542511531,-17.0958527057382,-18.0802524920196,2.51680628599263,-11.9591770073262,-35.8496364530127,-3.31001052051342,62.5219053892903,-7.0550178118283,-52.9014046942006,30.8587959705867
2.01763006964748,-17.1408314255879,-18.0767503749435,2.49500060755769,-11.9450284250195,-35.7915862023081,-3.27960966537348,62.6351177043562,-7.0893152481639,-52.8377191363755,30.8786237439574
2.34141538693621,-17.1911758804129,-18.0714975090898,2.47064091665383,-11.9284722081003,-35.7289691896627,-3.24702649603404,62.7658413250493,-7.12497767675293,-52.7683181009256,30.8957373357342
2.68382314810846,-17.2468968893942,-18.064414544685,2.44360455062513,-11.9089322971832,-35.6614506300777,-3.21203328696311,62.914881022879,-7.16217849745681,-52.6933593085109,30.9097345664101
3.04299337144398,-17.3079636270069,-18.0554274267282,2.4137670840467,-11.8858080565786,-35.5886827551794,-3.17438507859271,63.0829888004702,-7.20113999663292,-52.6129515566913,30.92016588386
3.41738360211383,-17.3743015478906,-18.0444696380155,2.38100469325955,-11.8584811378616,-35.5103076055674,-3.13382200519166,63.2708549223879,-7.24212357606321,-52.5271929318643,30.9265618174251
3.8055821962437,-17.4457912331858,-18.0314845174516,2.34519681780075,-11.8263232846175,-35.4259597733993,-3.09007231653902,63.4790994207774,-7.28541898185227,-52.4362097789354,30.9284604252654
