Finger Velocity,Scap_X,Scap_Y,Scap_Z,Shoulder horiz abd-adduction,Shoulder flexion-extension,Shoulder internal-external rotation,elbow flexion-extension,forearm pronation-supination,wrist flexion-extension,wrist radial-ulnar deviation
0.913364879120325,-14.4283902444209,-20.0009944024996,13.6330900955549,-28.7470107467002,-38.2213291459789,-26.738391265005,75.750565206891,-17.2664029739307,-45.4163212936813,31.3322001041597
1.13437787806725,-14.4120572517196,-20.0288209823587,13.6004036864016,-28.7165218493012,-38.2521713900431,-26.7276032864596,75.7647766253775,-17.1653262923055,-44.1914378304187,29.9620721248244
1.37181562332168,-14.3994312046231,-20.0558193408024,13.5650597310323,-28.6836372036018,-38.2909052986728,-26.7164034671024,75.7835214387069,-17.0602071196837,-42.9651080053148,28.5765219477706
1.62418976464849,-14.3907528297915,-20.0818417161287,13.5273239278066,-28.6486223562118,-38.3373204249065,-26.7048818663117,75.8072046847373,-16.9504592799468,-41.7693061676393,27.2075027350774
1.88975723000407,-14.3862371505595,-20.1067494314611,13.4874816051059,-28.6117105048034,-38.3910400042766,-26.6931034515189,75.8361469743123,-16.8353927033477,-40.6318732936981,25.8828391548073
2.16652329165397,-14.3860732572531,-20.1304131980692,13.4458308200282,-28.5730843442226,-38.4515160755305,-26.6811005891765,75.8705646229476,-16.7142230394299,-39.5748934795942,24.624589704404
2.45225661649528,-14.3904243061865,-20.1527130334419,13.4026750047909,-28.5328576194207,-38.5180281403911,-26.6688654863139,75.9105499972581,-16.5860850831728,-38.6139762881591,23.4483187842682
2.74451268244292,-14.3994276554317,-20.173537837568,13.3583152742175,-28.4910568862495,-38.5896856024622,-26.656342706991,75.9560526837307,-16.4500497198824,-37.7583487418484,22.3631839053118
3.04066382744192,-14.4131950539049,-20.1927846780298,13.3130425250228,-28.4476040681545,-38.6654341101305,-26.6434219200554,76.006862135825,-16.3051439704056,-37.0115352539653,21.3726176814784
3.33793486057599,-14.4318128137523,-20.2103578411001,13.2671294734924,-28.4023004785378,-38.7440657997115,-26.6299310634853,76.0625924870165,-16.1503736131005,-36.3723684632902,20.4753484249864
3.6334433850225,-14.4553419083993,-20.2261677114862,13.2208227946272,-28.3548130435619,-38.8242333043646,-26.6156301420494,76.1226702222735,-15.984747769201,-35.8361061876952,19.6665347207481
3.92424403079168,-14.4838179463791,-20.2401295463507,13.1743355459724,-28.3046634917448,-38.9044672732449,-26.6002059172987,76.1863253650406,-15.8073047596673,-35.395494784331,18.9388537389662
4.20737577611958,-14.5172509735137,-20.2521622092235,13.1278400880165,-28.2512212650811,-38.9831970382043,-26.5832678069785,76.2525867533554,-15.6171384712077,-35.0416878928537,18.2834511942749
4.47991149489556,-14.5556250547818,-20.2621869271142,13.0814617525338,-28.1937008544826,-39.0587739682646,-26.5643453801727,76.3202818518318,-15.4134244060261,-34.7649851210694,17.6907160746182
4.73900882458257,-14.5988975864267,-20.2701261311094,13.0352735530096,-28.1311641731424,-39.1294969623001,-26.5428878971634,76.3880413883884,-15.1954445382768,-34.5553923533834,17.1508801074523
4.98196141530665,-14.6469982939159,-20.2759024394091,12.9892922606969,-28.062528448392,-39.1936394515493,-26.5182663734307,76.4543089281016,-14.9626100705677,-34.4030257058335,16.6544619539999
5.20624960163404,-14.6998278847426,-20.2794378441469,12.9434761724519,-27.9865799318965,-39.2494772219168,-26.4897786265889,76.5173553129165,-14.7144811891042,-34.2983892785208,16.1925837588825
5.40958953659669,-14.7572563448595,-20.2806531687258,12.8977248697372,-27.9019935120187,-39.2953163263431,-26.4566576897518,76.5752977186376,-14.4507829671296,-34.2325574059773,15.7571875966267
5.58997984332834,-14.8191208927535,-20.2794678679475,12.8518812118611,-27.8073580741414,-39.3295203458759,-26.4180838466837,76.626122921357,-14.1714166712361,-34.1972884829183,15.3411752301358
5.74574487207852,-14.8852236385529,-20.2758002464971,12.8057357143419,-27.7012071907771,-39.3505362839576,-26.3732003603793,76.6677142288542,-13.8764658884521,-34.1850918402346,14.9384889980665
5.87557369653519,-14.9553290389215,-20.2695681693241,12.7590333294105,-27.5820544258023,-39.3569184507553,-26.3211327276824,76.6978814188939,-13.5661971106925,-34.1892631610628,14.5441463352122
5.97855403863368,-15.0291612898593,-20.2606903249825,12.7114824723164,-27.4484322164245,-39.3473498158578,-26.261011010227,76.7143929387252,-13.2410546727394,-34.2038987645289,14.1542364453863
6.05420036863762,-15.1064018543181,-20.2490880741567,12.6627659379881,-27.2989329853646,-39.3206604716079,-26.1919944923286,76.715009565914,-12.901650218036,-34.2238952988838,13.7658852612343
6.102475478226,-15.1866873688093,-20.234687866501,12.612553162266,-27.1322508896347,-39.275843036068,-26.1132976456694,76.6975187182268,-12.548747140359,-34.2449388793039,13.3771937513412
6.12380485712,-15.2696081932965,-20.2174241431158,12.5605131549289,-26.9472224979123,-39.2120650013411,-26.0242162004845,76.6597686332413,-12.1832406986668,-34.2634861374841,12.987154429785
6.11908320456926,-15.3547078464225,-20.1972425749431,12.5063274084812,-26.7428647422996,-39.1286781678675,-25.9241520756623,76.5997017112423,-11.8061347102343,-34.276738740779,12.5955512003708
6.08967236026714,-15.441483510032,-20.1741034387523,12.4497021546593,-26.5184086806152,-39.0252253900398,-25.8126359937732,76.5153864129549,-11.41851588192,-34.282612501363,12.2028480988165
6.03738982973798,-15.5293877182555,-20.1479849118613,12.3903794427691,-26.2733278531887,-38.9014449094372,-25.6893467474187,76.4050472070499,-11.0215269337246,-34.2797020839998,11.8100728043825
5.96448689611076,-15.6178312895012,-20.1188860719949,12.3281466008562,-26.0073602623581,-38.7572725824568,-25.5541262435301,76.2670921549091,-10.6163396962823,-34.267242376946,11.4187007639213
5.87361505467748,-15.7061875189263,-20.0868294140834,12.2628437093909,-25.7205232414834,-38.5928423096112,-25.406989627753,76.100137796097,-10.2041293219107,-34.2450676149713,11.0305452615779
5.76777920455303,-15.7937976139482,-20.0518627369722,12.1943688002228,-25.4131207489996,-38.4084849247539,-25.2481300077013,75.9030310609402,-9.78605064520431,-34.2135691371201,10.6476577320961
5.65027575177315,-15.8799773138986,-20.0140603057586,12.1226806179857,-25.0857429447528,-38.2047256984202,-25.0779175655213,75.674867992196,-9.3632175805056,-34.1736521564806,10.272241163215
5.52461365385574,-15.9640245844222,-19.9735232549812,12.0477989398294,-24.7392582648103,-37.9822804667553,-24.8968931526942,75.4150091092559,-8.93668626520162,-34.1266912826489,9.90657782864386
5.39441668388199,-16.0452282272702,-19.9303792583304,11.9698026088675,-24.3747985648342,-37.7420502467008,-24.7057567471641,75.1230912970534,-8.50744245864719,-34.0744840613471,9.55297114496922
5.26330610922246,-16.1228772100563,-19.8847815442583,11.8888255661426,-23.9937382071586,-37.4851140726656,-24.5053513903503,74.7990361474151,-8.07639349385338,-34.019201640411,9.21370034286933
5.13476489000118,-16.1962705038026,-19.8369073737847,11.8050512539697,-23.597668191309,-37.2127197202508,-24.2966433973667,74.4430547196189,-7.64436486431917,-33.9633357804247,8.89098591721499
5.0119876226975,-16.2647272129718,-19.7869561080227,11.7187058127509,-23.1883665541391,-36.9262719910107,-24.080699744244,74.0556487160425,-7.21210132708906,-33.90964165998,8.58696343038328
4.89772467557325,-16.3275967832871,-19.735146978741,11.6300505089229,-22.7677662907136,-36.6273183221457,-23.8586635801931,73.6376080909243,-6.78027222722073,-33.8610761846481,8.30366314602245
4.79413360563673,-16.3842690711184,-19.6817166472816,11.5393738187702,-22.3379219847923,-36.3175316344789,-23.6317288016031,73.1900051343747,-6.34948059656631,-33.8207317784697,8.04299313335978
4.70265466251682,-16.4341840542678,-19.6269166087749,11.4469835574525,-21.9009762174959,-35.9986905063196,-23.4011145787727,72.7141851068062,-5.92027543747029,-33.7917659497741,7.80672386347057
4.62392821609308,-16.4768409607477,-19.571010474452,11.3531993897982,-21.4591266732528,-35.6726569338445,-23.1680406621818,72.2117535404212,-5.49316646148515,-33.7773273088528,7.59647285859554
4.55776884646474,-16.5118065954871,-19.5142711418698,11.2583459909196,-21.0145946950949,-35.3413521000136,-22.9337042141416,71.6845603686529,-5.06864042371422,-33.7804791608542,7.41368857709706
4.50320339974878,-16.5387226619988,-19.4569778398328,11.1627470410856,-20.569595853772,-35.0067307176994,-22.6992588086636,71.1346810859509,-4.64717809419434,-33.8041222489801,7.25963333395169
4.45857011012847,-16.5573119099075,-19.3994130182427,11.0667201459029,-20.1263128886859,-34.6707546257194,-22.4657961161254,70.5643951771348,-4.22927085595683,-33.8509186192176,7.13536559314361
4.42166586001547,-16.567382985366,-19.3418590530804,10.9705726820481,-19.6868711719766,-34.3353663818054,-22.2343306475479,69.97616208881,-3.81543592469831,-33.923218878689,7.04172238085308
4.38992182334636,-16.5688339118977,-19.284594758202,10.8745984935406,-19.2533166672617,-34.0024636030951,-22.0057877895579,69.3725950450656,-3.4062292471365,-34.0229952950118,6.97930284239212
4.36058581845816,-16.5616541798866,-19.2278917348925,10.7790753092716,-18.8275962191574,-33.6738747530085,-21.7809952244462,68.7564330326646,-3.00225524672708,-34.1517831958385,6.9484540947057
4.33089245164625,-16.545925473233,-19.1720106375575,10.6842627172823,-18.4115399207024,-33.3513369743068,-21.5606776981151,68.1305112938532,-2.60417274005314,-34.3106329495518,6.94926051322795
4.2982078344904,-16.5218211081708,-19.1171974776944,10.5904005136943,-18.006845260683,-33.0364764378768,-21.3454549667496,67.4977306684772,-2.21269654117522,-34.5000744440977,6.98153745386081
4.26014213907727,-16.4896042918602,-19.0636801172461,10.4977072483245,-17.6150627591352,-32.7307915298616,-21.1358426266085,66.8610261261466,-1.82859449742499,-34.7200954654434,7.04483016646741
4.21462882776748,-16.449625314647,-19.0116651099382,10.4063788220824,-17.2375828722423,-32.4356390457219,-20.9322554306505,66.2233348300675,-1.45267994727579,-34.9701347744825,7.13841832995063
4.15997323971729,-16.4023177649596,-18.9613350357021,10.3165870544668,-16.8756240881466,-32.1522234085021,-20.7350126407975,65.5875640827526,-1.08579984669057,-35.2490900693943,7.26132627852181
4.09487528125222,-16.3481938115311,-18.9128464458158,10.2284782173794,-16.5302223083225,-31.8815887961903,-20.5443449563815,64.9565595233921,-0.728819058791413,-35.5553404527094,7.41233865782783
4.0184316344917,-16.2878385598917,-18.8663285042549,10.1421715936589,-16.20222175442,-31.6246139679732,-20.3604025777004,64.333073974482,-0.382601522816469,-35.886782513109,7.59002099261522
3.93012267658797,-16.2219034817886,-18.8218823801939,10.0577581416042,-15.8922677089944,-31.3820095299465,-20.1832639860129,63.7197373626358,-0.0479891948892073,-36.2408786836829,7.79274446679417
3.82978863423223,-16.1510989411655,-18.7795814178934,9.9752993328281,-15.6008013849396,-31.1543173713241,-20.0129450394951,63.11902815694,0.274220226077467,-36.6147161671787,8.01871408898259
3.71759869372295,-16.0761858838244,-18.7394720797075,9.89482620360839,-15.3280571572799,-30.9419120185184,-19.8494080065077,62.5332467756147,0.58329571476962,-37.0050744491069,8.26599932876233
3.59401602446818,-15.9979667993682,-18.7015756223947,9.81633864516693,-15.074062327206,-30.7450036847163,-19.692570199747,61.9644914103958,0.878594406119518,-37.408499260788,8.53256626852006
3.45976103574859,-15.9172760885788,-18.6658904263677,9.73980497015885,-14.8386395498702,-30.5636428300239,-19.542311951569,61.4146367086444,1.15958113368353,-37.8213807917864,8.81631033540677
3.31577469662968,-15.8349699726726,-18.6323948553164,9.66516182873214,-14.621412045211,-30.3977260888574,-19.3984837797653,60.8853157325259,1.42584510439613,-38.240033963024,9.11508876341765
3.16318340133322,-15.7519160676582,-18.6010504838377,9.59231459181761,-14.4218117052703,-30.2470034665801,-19.2609127132942,60.3779055780732,1.67711294772543,-38.6607786461431,9.42675207882835
3.00326664099028,-15.6689827257227,-18.571805495177,9.52113835226002,-14.2390901899659,-30.111086757475,-19.1294078528846,59.8935169821025,1.91325757679295,-39.0800178343663,9.74917406623804
2.83742863162555,-15.5870282238699,-18.5445980199067,9.45147970203604,-14.0723330572434,-29.98945918999,-19.0037653143067,59.4329881736274,2.13430253283445,-39.4943118946853,10.0802797944914
2.66717503666012,-15.5068898647229,-18.5193591617863,9.38315941907193,-13.9204769063849,-29.8814863558506,-18.8837727331483,58.9968831435582,2.34042173535409,-39.9004471226001,10.418071319056
2.4940960046337,-15.429373050686,-18.4960154478275,9.31597614019721,-13.7823294296173,-29.7864285127568,-18.7692134963805,58.5854944148028,2.53193480741489,-40.2954968979552,10.7606506566416
2.31985691372742,-15.3552403998333,-18.4744904587823,9.24971102044937,-13.6565921705801,-29.7034543465996,-18.6598708171336,58.1988502908135,2.70929836614923,-40.6768738890496,11.1062396336208
2.14619845297764,-15.2852009828309,-18.4547054527564,9.18413330810261,-13.5418856865735,-29.6316562228582,-18.5555317070634,57.8367264383214,2.87309384460809,-41.0423720514169,11.4531963078646
1.97494790074943,-15.2198997692707,-18.4365788844295,9.1190067199798,-13.4367767155981,-29.5700668499417,-18.4559908484908,57.4986615220264,3.02401253320182,-41.3901976097362,11.8000278368928
1.80804346580679,-15.1599073823213,-18.4200248300248,9.05409648293672,-13.3398068647714,-29.5176771436382,-18.3610543380154,57.1839764731809,3.16283859578239,-41.7189887101088,12.1453998371911
1.64757278055632,-15.1057102835557,-18.4049504377259,8.98917689557169,-13.2495222596757,-29.4734549545285,-18.2705432617838,56.8917968659989,3.2904308278581,-42.0278238957819,12.4881423885922
1.49582381380324,-15.0577015550124,-18.3912526252593,8.92403923572806,-13.1645035127785,-29.4363642231418,-18.1842970538858,56.6210778114105,3.40770388112474,-42.3162199452933,12.8272528730741
1.35533904772822,-15.0161725137335,-18.3788143348401,8.85849978290434,-13.0833952723881,-29.4053840680113,-18.1021765618251,56.3706307516334,3.51560957982342,-42.5841199065013,13.1618958205579
1.22894756020031,-14.9813054732322,-18.367500722894,8.79240764939374,-13.0049345057449,-29.3795272848953,-18.0240666873112,56.1391515319977,3.61511881552428,-42.831872365117,13.4913998920202
1.11972085054949,-14.9531680338094,-18.357155697924,8.72565204590319,-12.9279765793887,-29.357857734058,-17.9498784042831,55.9252491223848,3.70720436122809,-43.0602031111807,13.8152520878225
1.03076308861672,-14.931709316489,-18.3475992161216,8.65816857408877,-12.8515181672688,-29.3395061137497,-17.8795499136586,55.7274743561679,3.79282482853833,-43.270180433616,14.1330892537903
0.964742932325596,-14.9167585432703,-18.3386256985614,8.58994415188354,-12.774716066274,-29.3236836631635,-17.8130466983463,55.5443480544894,3.87290991925078,-43.463175307322,14.4446869909507
0.923180407653819,-14.9080263099326,-18.3300038512862,8.52102023232131,-12.6969011282494,-29.3096934077932,-17.7503602882301,55.3743879138966,3.94834708778719,-43.6408177422395,14.7499461564902
0.905748035337221,-14.9051087998819,-18.3214780605159,8.45149406128047,-12.61758671195,-29.2969386506072,-17.6915056147197,55.21613356106,4.01996971561878,-43.804950519725,15.0488772473428
0.910029478282048,-14.9074950570782,-18.3127714128895,8.38151782385974,-12.5364712970676,-29.2849285155965,-17.6365169138325,55.0681692242991,4.08854688877214,-43.9575814435006,15.3415830545992
0.931975007263236,-14.9145772903599,-18.3035902698256,8.31129564355941,-12.453435161965,-29.2732804557524,-17.5854422214392,54.9291435411917,4.15477486005295,-44.1008351142648,15.6282400595851
0.966799344024692,-14.9256640382257,-18.2936302194952,8.24107851448551,-12.3685312893551,-29.2617197364968,-17.5383365969931,54.7977861165182,4.21927027304183,-44.2369051468359,15.9090791231075
1.00982758859828,-14.9399958905712,-18.2825831499726,8.17115735822637,-12.2819709217928,-29.25007599263,-17.4952543147851,54.6729205646913,4.28256523046056,-44.3680077082841,16.1843661031731
1.05699586160345,-14.9567633410633,-18.2701451382967,8.10185449995505,-12.1941044349528,-29.2382770294242,-17.4562403673055,54.553473908215,4.34510430139151,-44.4963372479107,16.4543831055471
1.10501323144158,-14.9751262300857,-18.2560248298991,8.03351394758951,-12.1053984168039,-29.2263400981317,-17.4213217163719,54.4384823434237,4.4072435659397,-44.6240252752207,16.7194110944097
1.1513226970195,-14.9942341416469,-18.239951980736,7.96649092461557,-12.0164100122719,-29.2143609308181,-17.3904987864703,54.3270935114903,4.46925177599609,-44.7531029805398,16.9797145432336
1.19398479007605,-15.0132470531499,-18.2216858391812,7.90114114162023,-11.9277596931581,-29.2025008795589,-17.3637377118257,54.2185655192504,4.53131365595764,-44.8854683630042,17.2355286866609
1.23155297354445,-15.0313555160685,-18.2010230500132,7.83781028836912,-11.8401036297938,-29.1909725766838,-17.3409638237958,54.1122630427245,4.59353527520566,-45.0228583364491,17.4870497615366
1.26296848765873,-15.0477996698578,-18.1778047664314,7.77682418945101,-11.7541067790301,-29.1800246147465,-17.3220568023506,54.0076509233108,4.65595130387587,-45.1668260546719,17.7344284300955
1.28748077254284,-15.0618864530957,-18.1519226592934,7.71848000019429,-11.6704176821827,-29.1699258276294,-17.3068478189134,53.9042857375587,4.71853383736699,-45.3187234773913,17.9777663917149
1.30459102797342,-15.0730044655703,-18.1233235242093,7.66303873513045,-11.5896458080646,-29.1609498179983,-17.295118872383,53.8018058821743,4.78120237355347,-45.4796890198823,18.2171160315505
1.31401413589638,-15.0806360483754,-18.0920122207119,7.61071932571004,-11.5123420929006,-29.1533603966607,-17.2866043750318,53.6999207532846,4.8438344749954,-45.6506399930039,18.4524828266026
1.3156542645384,-15.0843662833472,-18.0580527427489,7.56169430370913,-11.4389831270507,-29.1473985600088,-17.2809948957776,53.5983996016233,4.90627665235063,-45.8322694226539,18.6838301235456
1.30959026459154,-15.0838887596401,-18.0215673128778,7.51608711247794,-11.3699592295175,-29.1432715350307,-17.2779428340557,53.4970606143107,4.96835504697027,-46.0250467281263,18.9110858174761
1.29606778339383,-15.079008099229,-17.982733501046,7.47397097283006,-11.3055664543867,-29.141144285156,-17.2770696940569,53.3957607204138,5.02988554234384,-46.2292216608197,19.1341504114285
1.27549563903022,-15.0696393626922,-17.9417794802781,7.43536917949501,-11.2460024052091,-29.1411337144224,-17.2779745623088,53.2943865517128,5.09068297896462,-46.444830889625,19.3529059357587
1.2484443527876,-15.055804567814,-17.898977639184,7.40025667280427,-11.1913655998337,-29.1433056443824,-17.2802433598235,53.1928469164203,5.15056918811389,-46.6717066685974,19.5672252468155
1.2156448166571,-15.0376266466578,-17.8546368700113,7.36856271205892,-11.1416580294274,-29.1476744752866,-17.2834584431728,53.0910670655556,5.20937960666608,-46.9094871106274,19.7769812812806
1.17798485104078,-15.0153212400961,-17.8090939321161,7.34017446994175,-11.0967904918044,-29.1542052915934,-17.2872081662715,52.9889849577029,5.26696828641956,-47.1576276902297,19.9820558897099
1.13650085878072,-14.9891867777861,-17.7627043429145,7.31494137158548,-11.0565902496821,-29.1628180472862,-17.2910960761411,52.8865496681736,5.32321115532907,-47.4154136874151,20.1823478978863
1.09236090320068,-14.9595933124519,-17.7158332640955,7.29268001623127,-11.020810562842,-29.1733933807088,-17.2947494845921,52.7837220442298,5.37800741648903,-47.6819733518948,20.3777800622149
1.0468344351932,-14.9269705694078,-17.6688468286356,7.27317954058722,-10.9891416597252,-29.1857795654938,-17.2978272215555,52.6804776664074,5.43127899253473,-47.9562916211838,20.568304623464
1.00124292713124,-14.8917956382233,-17.6221042975745,7.25620730703695,-10.9612227403459,-29.1998001013223,-17.3000264330005,52.5768121217209,5.48296795677474,-48.2372242838535,20.7539072310005
