Finger Velocity,Scap_X,Scap_Y,Scap_Z,Shoulder horiz abd-adduction,Shoulder flexion-extension,Shoulder internal-external rotation,elbow flexion-extension,forearm pronation-supination,wrist flexion-extension,wrist radial-ulnar deviation
0.659779269419268,-14.2845172645877,-23.1646124095921,11.2383945636885,-28.6102167784454,-39.6889327611931,-27.1244534010078,79.9741131059828,-20.2195496227768,-50.6688447451696,32.6798597107201
0.776008626837908,-14.2339321658895,-23.1747055034061,11.2137327541702,-28.6312599874019,-39.7141149606601,-27.1115955662163,80.0611111566264,-20.1601511536602,-49.5068524561645,31.4683372871459
0.908416599122525,-14.1850807253232,-23.1779669091084,11.1861242548939,-28.6467539717079,-39.7434290999319,-27.0986046711093,80.149061627284,-20.0987296250866,-48.3288242061878,30.221878500919
1.05681124419078,-14.1382127703144,-23.1745254863523,11.1557056131274,-28.6554073086318,-39.7756802327854,-27.0849213417862,80.2371442564809,-20.0355445025675,-47.1501163213943,28.9560383050778
1.22099708849253,-14.0935242397229,-23.1645934868144,11.122644502793,-28.6558779783427,-39.8095185255039,-27.0699089196644,80.324482963077,-19.9708439174719,-45.9867712588372,27.6874603242277
1.40075535801249,-14.0511511778262,-23.1484605125911,11.0871352024207,-28.6467846824712,-39.8434583745927,-27.0528561029176,80.4101525665407,-19.9048592956585,-44.8548437478389,26.433202881697
1.5958220173815,-14.0111647392093,-23.1264863124441,11.0493933855474,-28.6267195468947,-39.8759005149331,-27.0329813777469,80.4931862102655,-19.837800439739,-43.769693352973,25.2100204495312
1.80586867045956,-13.9735673539896,-23.099092600086,11.0096504674166,-28.5942622994908,-39.9051565427857,-27.0094395009091,80.5725833322881,-19.7698511461537,-42.745307286235,24.033664615904
2.03048768514852,-13.9382901745159,-23.0667540863529,10.9681477501924,-28.5479959771693,-39.929475212016,-26.9813302371399,80.6473180070326,-19.7011654220058,-41.7937139272924,22.9182656663251
2.26918151386827,-13.9051918897579,-23.0299889168889,10.9251305898478,-28.4865241645457,-39.9470698233654,-26.94770947361,80.7163474762832,-19.6318643477946,-40.9245347597336,21.8758434224607
2.52135576579342,-13.8740589577044,-22.9893487031501,10.8808427817498,-28.4084896944779,-39.9561460106749,-26.9076027321448,80.7786206962956,-19.5620336108813,-40.1447030635585,20.9159768645606
2.78631553634928,-13.8446072732361,-22.9454083325402,10.8355213340639,-28.3125946438921,-39.9549292311975,-26.8600209772764,80.8330867472379,-19.4917217102645,-39.4583559780842,20.0456405643505
3.06326456029615,-13.8164852612041,-22.8987557460065,10.7893917703499,-28.1976213394787,-39.9416912885184,-26.8039784766738,80.8787029754656,-19.4209388053827,-38.8668870035349,19.2691966171695
3.35130683193286,-13.7892783612168,-22.8499818765525,10.7426640758115,-28.0624539585933,-39.9147752567326,-26.7385123201988,80.9144427620336,-19.3496561504544,-38.3691318810807,18.5885168108528
3.64945039913281,-13.7625148481991,-22.7996709438693,10.6955293756888,-27.9061001878211,-39.8726182359286,-26.6627030599283,80.9393028285748,-19.2778060252719,-37.9616531556201,18.0032022546766
3.95661308121465,-13.7356729064901,-22.748391291049,10.648157407881,-27.7277123009347,-39.8137714563888,-26.5756958101231,80.9523100048838,-19.2052820529724,-37.6390869841093,17.5108659703028
4.27162988643695,-13.7081888433379,-22.6966869239105,10.6006948224838,-27.5266069506405,-39.7369173650659,-26.4767210509564,80.9525273923365,-19.1319397979592,-37.3945185973314,17.1074466729053
4.59326191764751,-13.6794662926934,-22.6450698732137,10.553264306986,-27.3022829412879,-39.6408834676448,-26.3651143143365,80.9390598622924,-19.0575975719626,-37.2198587005541,16.7875276060691
4.92020655867096,-13.6488862268576,-22.5940134531396,10.5059644984247,-27.0544362661677,-39.5246528484389,-26.240333895788,80.9110588288563,-18.982037440598,-37.1062003440917,16.5446412393693
5.25110873302173,-13.6158175661128,-22.5439464456947,10.4588706059107,-26.7829717537357,-39.3873714313747,-26.1019757394384,80.8677262360362,-18.9050065004959,-37.0441429280987,16.3715474731191
5.5845730233302,-13.5796281575546,-22.4952482065451,10.4120356328974,-26.4880107688005,-39.2283521652878,-25.9497846941136,80.8083177082613,-18.8262185659924,-37.024076043229,16.2604787583779
5.91917643661299,-13.5396958840416,-22.4482446658278,10.3654920632984,-26.1698945512008,-39.0470764068955,-25.7836614489551,80.7321448348166,-18.7453564458499,-37.0364203766434,16.2033498127947
6.25348159875378,-13.4954196604733,-22.4032051885351,10.319253862999,-25.8291829378995,-38.8431928291353,-25.603664634921,80.6385765902327,-18.6620749928525,-37.071826032114,16.1919324841045
6.58605016234991,-13.4462300751915,-22.3603402619483,10.2733186485733,-25.4666483922566,-38.6165142012669,-25.4100078168121,80.5270399244441,-18.5760050686933,-37.1213307871424,16.2179982550494
6.91545621605807,-13.3915994380311,-22.319799988529,10.2276698840559,-25.0832654370142,-38.3670123798242,-25.2030513686751,80.3970195770332,-18.4867584910948,-37.1764824672907,16.2734323766135
7.24029949102165,-13.3310510037472,-22.2816733767254,10.1822789797258,-24.6801957363984,-38.0948118292863,-24.9832894835716,80.2480571730554,-18.3939339385701,-37.2294308008242,16.3503247655663
7.55921817085165,-13.2641671517953,-22.245988435229,10.1371071822801,-24.2587691940033,-37.8001819637681,-24.7513327939844,80.079749648352,-18.2971237013646,-37.2729946463377,16.4410434187718
7.87090112567248,-13.1905963229157,-22.2127130853805,10.0921071640951,-23.820461541306,-37.4835285621657,-24.5078872763086,79.8917470430634,-18.1959210962956,-37.3007103581071,16.53829608138
8.17409940743207,-13.1100585411977,-22.1817569094686,10.0472242409396,-23.3668690033055,-37.1453844560217,-24.2537302965309,79.6837497067274,-18.0899283115566,-37.3068664889171,16.6351853795337
8.46763686235069,-13.0223493868105,-22.1529737487609,10.0023971725029,-22.8996807414899,-36.7863996292327,-23.9896848230951,79.4555049815285,-17.9787644202198,-37.2865292413701,16.7252617712042
8.75041973628481,-12.9273423270039,-22.1261651549508,9.95755852873647,-22.4206498676056,-36.4073308172729,-23.7165929628063,79.2068034632885,-17.8620733073731,-37.2355621154673,16.8025775710753
9.02144516910517,-12.8249893582935,-22.1010846838686,9.91263463709612,-21.9315638676261,-36.0090306653524,-23.4352900355097,78.9374749658559,-17.7395312977862,-37.1506419669357,16.8617439297443
9.27980849415014,-12.7153199588378,-22.0774430022454,9.86754515915324,-21.4342152635765,-35.5924365041586,-23.1465803768831,78.6473843221406,-17.6108543359963,-37.0292721056967,16.8979909135648
9.52470927771031,-12.5984383967224,-22.0549137573665,9.82220237561408,-20.9303732833798,-35.158558820435,-22.851215948651,78.3364271460437,-17.475804637471,-36.8697912570157,16.9072288065038
9.75545605075967,-12.4745194884747,-22.0331401343209,9.776510282289,-20.4217572254523,-34.7084695240114,-22.5498786527146,78.0045256628436,-17.3341967800439,-36.6713755927349,16.8861068060117
9.97146970038746,-12.3438029523732,-22.0117419950261,9.73036361348426,-19.9100121079684,-34.2432901337493,-22.2431670069475,77.6516246982127,-17.1859032287581,-36.4340301420177,16.8320639824196
10.1722855014384,-12.2065865476047,-21.9903234593628,9.68364691415962,-19.396687088995,-33.7641800205892,-21.9315875742762,77.2776879037551,-17.0308592813264,-36.158566002036,16.7433671328937
10.357553779821,-12.0632182240715,-21.9684807571874,9.63623378073061,-18.8832170399023,-33.2723248597376,-21.6155512725474,76.8826942951536,-16.8690673934557,-35.8465607270942,16.6191309336775
10.5270392081312,-11.9140875237209,-21.9458101550229,9.5879863839756,-18.370907553676,-32.7689254606175,-21.2953744425529,76.4666351864315,-16.7006008137182,-35.5003006125193,16.459317125807
10.6806187422415,-11.7596164763078,-21.9219157423171,9.53875537414127,-17.8609235669251,-32.2551871646427,-20.9712843174865,76.0295116107418,-16.5256064458971,-35.1227049080205,16.2647109029446
10.8182782151177,-11.6002502275004,-21.8964168490872,9.48838024604312,-17.3542816640039,-31.7323100207194,-20.6434283322179,75.5713323142669,-16.34430686433,-34.7172331857369,16.0368740467142
10.9401076123073,-11.4364476282263,-21.8689548682428,9.43669021282173,-16.8518460154465,-31.2014799491468,-20.3118865570394,75.0921123915255,-16.1570014225268,-34.2877782298301,15.7780757484017
11.046295063327,-11.2686720006869,-21.8391992857574,9.38350560499046,-16.3543277854176,-30.6638610694056,-19.9766864483921,74.5918726001046,-15.9640664104408,-33.8385479280515,15.4912035016361
11.1371195956171,-11.0973822794867,-21.8068527812932,9.32863977750237,-15.8622877292741,-30.1205892981647,-19.6378190713971,74.070639356342,-15.7659542342245,-33.3739406195064,15.1796578319986
11.2129427137475,-10.9230247091045,-21.7716553308127,9.27190147144911,-15.3761416053353,-29.5727672432653,-19.2952559547463,73.5284453786827,-15.5631916139572,-32.8984190746245,14.8472357893253
11.2741988868463,-10.7460252634185,-21.7333872968092,9.21309754309747,-14.8961679620106,-29.0214603505237,-18.9489657837376,72.9653309197821,-15.3563768124072,-32.416388710508,14.4980089537639
11.3213850521361,-10.5667829372364,-21.6918715250611,9.1520359498006,-14.422517838626,-28.4676942088883,-18.5989302195243,72.3813455152877,-15.1461759183899,-31.9320856798926,14.1362020532931
11.3550492718594,-10.3856640398636,-21.6469744908558,9.08852887512342,-13.9552259258156,-27.9124528792937,-18.2451582423528,71.7765501759882,-14.9333182186392,-31.4494799140078,13.7660779663329
11.3757787140619,-10.2029975942479,-21.5986065625814,9.02239588297582,-13.4942227569419,-27.3566780802136,-17.8876985419985,71.1510199595276,-14.718590710814,-30.9721969813876,13.3918338523138
11.3841871633603,-10.0190719124873,-21.5467214748157,8.95346700831428,-13.0393475419453,-26.8012690430973,-17.5266496148232,70.5048468770698,-14.5028318367853,-30.5034609943042,13.0175116759899
11.3809023039567,-9.8341323814343,-21.4913151195919,8.88158571578626,-12.5903613103533,-26.2470828477741,-17.1621673701336,69.8381431153995,-14.2869245384292,-30.046059104192,12.6469248304822
11.3665530512335,-9.64838045346183,-21.4324237704075,8.80661168333865,-12.1469600962024,-25.6949350593223,-16.7944701859505,69.1510445786274,-14.0717887453876,-29.6023265614536,12.2836011312366
11.3417572372236,-9.46197380037937,-21.3701218507966,8.72842339083233,-11.7087879614431,-25.1456005091718,-16.4238414683644,68.4437147685476,-13.8583733947201,-29.1741499688177,11.9307412422484
11.3071099758395,-9.27502755609496,-21.3045193508304,8.64692051049763,-11.2754497038526,-24.5998140923147,-16.0506298511016,67.7163490253609,-13.6476480675714,-28.7629854328168,11.5911907422147
11.2631730427251,-9.08761654734576,-21.2357589818365,8.56202610454024,-10.8465231280711,-24.0582714892502,-15.6752472285109,66.9691791407345,-13.4405943174426,-28.3698880480806,11.2674237017946
11.2104655990988,-8.89977839092823,-21.164013141588,8.47368863418782,-10.4215707796958,-23.5216297636565,-15.298164857952,66.2024783325,-13.2381967544018,-27.9955495430218,10.9615358438578
11.1494565669005,-8.71151731915005,-21.0894807393535,8.38188377375398,-10.0001510588979,-22.9905078306589,-14.9199078044782,65.4165665349682,-13.0414339288457,-27.6403416365059,10.6752458631343
11.0805589228983,-8.52280858300045,-21.0123839052037,8.28661600587038,-9.58182864515092,-22.46548683091,-14.541048030871,64.6118159153959,-12.8512690263861,-27.3043632115503,10.4099039043217
11.0041261225143,-8.3336032761919,-20.9329645858022,8.18791995664093,-9.16618417836663,-21.9471104769076,-14.1621964535062,63.7886564820389,-12.6686403579586,-26.9874895449485,10.1665062880834
10.9204507918159,-8.14383342331344,-20.8514810137682,8.08586141862947,-8.75282315139999,-21.435885455567,-13.7839942871654,62.9475816049642,-12.494451629642,-26.6894216496975,9.94571536915517
10.8297657417139,-7.95341718089139,-20.768204030665,7.98053800759437,-8.34138397253937,-20.9322819743905,-13.4071039953442,62.0891532276205,-12.3295620195065,-26.4097335150436,9.7478830911669
10.7322472664976,-7.7622640096926,-20.6834132436263,7.87207940384622,-7.93154515662059,-20.4367345301944,-13.0322001520268,61.2140065107611,-12.1747761665652,-26.147914849615,9.57307655650788
10.628020594918,-7.57027968930342,-20.5973930016378,7.76064713661734,-7.52303160464194,-19.9496429618575,-12.6599605013772,60.3228536322967,-12.0308342575436,-25.9034070604096,9.42110395083553
10.5171672720028,-7.37737106205262,-20.5104281900537,7.6464338755461,-7.11561993501244,-19.4713738224471,-12.2910574635213,59.416486474164,-11.8984024444809,-25.6756307891084,9.29153956554786
10.3997341694191,-7.18345041290926,-20.4227998615594,7.52966219707289,-6.70914283034134,-19.002262072367,-11.9261502779515,58.495777956242,-11.7780638328179,-25.4640042698856,9.18374734117151
10.2757437565239,-6.98843941401702,-20.3347807457367,7.41058279902547,-6.30349235869995,-18.5426130598539,-11.5658779142454,57.5616818192388,-11.6703102706593,-25.2679527599722,9.09690303546521
10.1452052171884,-6.79227258500749,-20.2466307014275,7.28947214646868,-5.89862222034945,-18.0927047273954,-11.2108528246897,56.6152307099494,-11.5755351672064,-25.0869100780645,9.030015576896
10.0081259714534,-6.59490024122705,-20.1585921910242,7.16662954568913,-5.4945488659391,-17.6527899662933,-10.8616555658331,55.6575324830153,-11.4940275667408,-24.9203138238089,8.98194835269503
9.86452315691321,-6.39629091988654,-20.0708858628525,7.04237366075141,-5.09135143394728,-17.2230990319583,-10.5188302706377,54.6897646992865,-11.4259676896716,-24.7675962158939,8.95144117150685
9.71443464170081,-6.19643328759721,-19.983706329417,6.91703850901117,-4.68917046588596,-16.8038419224809,-10.1828809094787,53.7131673662826,-11.3714241224875,-24.6281727127296,8.93713349396658
9.55792917696618,-5.99533754170379,-19.8972182284549,6.79096899781886,-4.2882053805879,-16.3952106101043,-9.85426824491594,52.7290340290239,-11.3303528003445,-24.5014306488816,8.93758927301971
9.39511534868921,-5.79303632428028,-19.8115526539207,6.66451609077576,-3.88871072411995,-15.9973810026804,-9.53340736878396,51.7387013803923,-11.3025978831328,-24.3867199951936,8.95132342779521
9.22614905273306,-5.58958517494304,-19.7268040495419,6.53803171182197,-3.49099125230001,-15.6105145058767,-9.2206657079945,50.7435376184468,-11.287894581476,-24.283347968812,8.97682961191035
9.0512392891246,-5.38506255886369,-19.6430276702673,6.41186350502084,-3.09539593938597,-15.2347590627692,-8.91636139365707,49.7449298317195,-11.285873947732,-24.1905785604385,9.01260854137896
8.87065214755278,-5.17956951887846,-19.5602377314304,6.28634956962983,-2.70231103835946,-14.8702495707447,-8.62076191065224,48.7442707427984,-11.2960696094597,-24.1076372365245,9.05719577786159
8.68471293219182,-4.97322901300411,-19.4784063713754,6.1618132908235,-2.31215235095587,-14.5171076176665,-8.33408298528703,47.7429451874558,-11.3179263882228,-24.033720308221,9.10918760142036
8.49380644682174,-4.76618500830409,-19.3974635435635,6.03855839316189,-1.92535690138059,-14.1754405321406,-8.05648772047234,46.742316748233,-11.350810719514,-23.9680078498312,9.1672634970613
8.29837552801085,-4.55860140641165,-19.3172979301458,5.91686435885304,-1.5423742418278,-13.8453397918194,-7.78808603758765,45.7437149865509,-11.3940227737432,-23.9096786649661,9.23020385542598
8.09891797258381,-4.35066087350774,-19.2377589364679,5.79698236911105,-1.163657641748,-13.5268788697118,-7.528934520677,44.748423712807,-11.4468101623851,-23.8579257199293,9.29690179227605
7.89598205400102,-4.14256363852234,-19.1586597886937,5.6791319305684,-0.789655415529519,-13.2201106244076,-7.27903677740081,43.7576706920312,-11.5083830751395,-23.811970682981,9.36636850492334
7.69016085937153,-3.93452630934436,-19.0797817150418,5.56349832951719,-0.420802617477698,-12.9250643639096,-7.03834443348222,42.772619104909,-11.5779306243838,-23.7710765642918,9.43773219316514
7.48208570377322,-3.72678073874155,-19.000879145994,5.45023101617504,-0.0575132837712372,-12.6417427357225,-6.80675886529565,41.7943609813834,-11.6546380882189,-23.734557749145,9.51023112584376
7.27241889086447,-3.51957294971774,-18.9216858244976,5.3394429691406,0.299826654884492,-12.3701186100412,-6.58413374859088,40.8239127142895,-11.7377046641617,-23.7017868788191,9.58320182511438
7.06184608824816,-3.31316210583959,-18.841921679741,5.23121103662574,0.650865713316153,-12.1101321186044,-6.37027846083476,39.8622126575175,-11.8263612791677,-23.6721981347913,9.65606356044882
6.85106857278361,-3.10781949011084,-18.7613002928953,5.12557720235425,0.9952924009349,-11.8616879856883,-6.16496232617745,38.9101207206337,-11.9198879491947,-23.6452866612028,9.72830046166177
6.64079557543038,-2.90382744415796,-18.6795367741608,5.02255068503493,1.33283995846059,-11.6246532442915,-5.96791964620877,37.9684197901197,-12.017630150076,-23.6206041863125,9.79944263687493
6.4317369179979,-2.70147822776944,-18.5963558784106,4.922110754184,1.66329028089181,-11.3988553791323,-5.77885542709676,37.0378187423045,-12.1190136584058,-23.597751303788,9.8690477170542
6.22459608655163,-2.50107279033584,-18.5115002051337,4.82421013089501,1.98647704750669,-11.1840808916894,-5.59745169933527,36.1189567713252,-12.2235573463221,-23.5763671999301,9.93668419064694
6.02006382991765,-2.30291948666976,-18.4247383400404,4.72877883641414,2.30228809810708,-10.9800742581596,-5.42337432597254,35.2124087364547,-12.3308834645407,-23.5561177657194,10.0019176736455
5.81881230913509,-2.10733279583692,-18.3358727807226,4.63572835141851,2.61066709568723,-10.7865372640868,-5.25628019730078,34.3186912313907,-12.4407250220479,-23.5366830149481,10.0643008604903
5.62148975803282,-1.91463209902401,-18.2447474429492,4.54495595292139,2.91161449308479,-10.6031287497118,-5.09582470310777,33.4382690888159,-12.5529299656065,-23.5177445926092,10.1233674010152
5.42871555047999,-1.72514054583948,-18.1512544890648,4.45634910183895,3.20518778365316,-10.4294648654202,-4.94166935406071,32.571562052694,-12.667461973137,-23.4989739558124,10.178629503001
5.24107551140167,-1.5391840003126,-18.0553401882341,4.36978976174437,3.4915009780772,-10.2651199843794,-4.79348939590705,31.7189513746349,-12.7843977988822,-23.4800215973232,10.2295787754244
5.0591172624618,-1.35709001762954,-17.9570095265374,4.28515853930867,3.77072322053573,-10.1096284312603,-4.65098123052926,30.8807861176858,-12.9039212421642,-23.4605075032646,10.2756896913448
4.88334536631127,-1.17918676551834,-17.8563293234137,4.20233855086833,4.04307643897135,-9.9624871684836,-4.51386943252466,30.0573889823117,-13.026313947411,-23.4400128949199,10.3164249729256
4.71421603278922,-1.00580177427532,-17.7534296605937,4.12121893733268,4.30883191509566,-9.82315955157665,-4.38191313387288,29.2490615062025,-13.1519433674045,-23.4180731620324,10.3512420986272
4.55213118341334,-0.837260382922835,-17.6485034824402,4.04169796768047,4.56830566529271,-9.69108023102348,-4.25491154372408,28.456088529214,-13.2812483235311,-23.3941717280317,10.3795999818429
4.39743174232055,-0.673883752323712,-17.5418042855702,3.96368568455017,4.82185255490728,-9.56566123686342,-4.13270837315631,27.6787418516885,-13.4147226742555,-23.3677344380749,10.4009647371891
4.25039013477458,-0.515986340105004,-17.4336418825293,3.88710605247046,5.06985912979988,-9.44629923095846,-4.01519494571174,26.917283044756,-13.5528976577444,-23.338124012571,10.4148134456517
4.11120212555035,-0.363872773392317,-17.3243762950285,3.81189857293215,5.31273523354903,-9.33238385227214,-3.90231179825818,26.1719653944391,-13.6963235036578,-23.304634217039,10.4206350225085
3.97997830895932,-0.217834111683586,-17.2144099025929,3.7380193337219,5.55090457586107,-9.22330701863375,-3.79404861847746,25.4430349788144,-13.8455509072708,-23.2664836474594,10.4179276641531
3.85673575164707,-0.0781435619399653,-17.1041780427568,3.66544146416071,5.7847945173061,-9.1184729893083,-3.69044242585288,24.7307308933089,-14.0011129262702,-23.2228093441786,10.4061928135958
