Finger Velocity,Scap_X,Scap_Y,Scap_Z,Shoulder horiz abd-adduction,Shoulder flexion-extension,Shoulder internal-external rotation,elbow flexion-extension,forearm pronation-supination,wrist flexion-extension,wrist radial-ulnar deviation
1.55750261503808,-12.3810554983304,-20.4408516699779,12.6838774073702,-35.284352924635,-34.7245149408178,-30.6364212427469,75.449312910473,-25.1150228562415,-55.029214478383,38.5081812130246
1.82393329004109,-12.3650301270643,-20.4606806554049,12.6527770502107,-35.3312642763059,-34.6743389525362,-30.6273926405434,75.7653162506886,-24.9242625016985,-52.9635260345896,36.2846724060834
2.11290964451805,-12.3478696614193,-20.4823706979756,12.6204264258805,-35.3788195683279,-34.6171511795728,-30.62268818911,76.0910196469852,-24.7325010919766,-50.8691076122638,34.0288202489116
2.42274851488766,-12.3296857110774,-20.5060391720477,12.5869069055249,-35.4263070847663,-34.5521012776091,-30.6217823350478,76.4257588475023,-24.5393681140483,-48.7809830954209,31.7768146664261
2.75186248043209,-12.3106152807095,-20.531784693955,12.5522892132407,-35.4728793218353,-34.4782486868154,-30.623953495568,76.7688624788811,-24.3442889476548,-46.7347361792937,29.5654669320931
3.09871876774995,-12.2908215622208,-20.5596830480768,12.5166300529479,-35.5175453875069,-34.3945581499756,-30.6282798990968,77.1196557377834,-24.1464869026238,-44.7639646929978,27.4296525043244
3.46182719770062,-12.270494239185,-20.5897833354335,12.4799689401563,-35.5591662797433,-34.2998969742964,-30.6336389553255,77.4774644373421,-23.9449904414828,-42.8979212758947,25.3999407577204
3.83974820364716,-12.2498492319448,-20.6221044348817,12.4423252494024,-35.5964537056138,-34.193034444475,-30.6387103073892,77.8416198341998,-23.7386455832808,-41.1596826028838,23.5007535980562
4.23111456307424,-12.2291278185076,-20.6566318445522,12.4036954736932,-35.6279730525897,-34.0726437496795,-30.6419826250833,78.2114646097851,-23.5261334149044,-39.5650625006568,21.7492678891693
4.63466227321281,-12.2085950763641,-20.6933149516162,12.3640506834659,-35.6521510323951,-33.9373067133402,-30.6417640993178,78.5863602774082,-23.3059925403281,-38.1223205717876,20.1551127358031
5.04926705764066,-12.1885376035122,-20.7320647619398,12.3233341707105,-35.6672883873491,-33.7855215167786,-30.6361965028787,78.9656961387311,-23.0766461586606,-36.8325718806012,18.720766539212
5.47398353893452,-12.1692604929142,-20.7727521067525,12.2814592695981,-35.671577879107,-33.6157134923725,-30.6232726029814,79.3488997269306,-22.8364332706427,-35.6907111054285,17.4424666481902
5.90808433977376,-12.1510835527814,-20.8152063288836,12.2383073579426,-35.663127573404,-33.4262489394706,-30.6008566506531,79.7354484647056,-22.5836432877614,-34.6866348276194,16.3114148727465
6.35109641806522,-12.1343367852602,-20.8592144338303,12.1937260627204,-35.6399892006005,-33.2154517991927,-30.5667076229944,80.1248820539454,-22.3165530927052,-33.8065651155052,15.3150819059459
6.80283190282986,-12.1193551589515,-20.9045206697972,12.1475277148182,-35.6001911237733,-32.981622923979,-30.518504846305,80.5168149209435,-22.0334654005615,-33.0343242320909,14.438460747148
7.26341066066645,-12.106472737347,-20.9508264759884,12.0994881192224,-35.541775200258,-32.7230616035301,-30.4538755763897,80.9109478884807,-21.7327471140702,-32.3524640553717,13.6651734106887
7.73327186311469,-12.0960162555713,-20.9977907109717,12.0493457241024,-35.4628365977049,-32.4380889662845,-30.3704240604201,81.3070781604602,-21.4128662851517,-31.7432015958813,12.9783834368536
8.21317201332758,-12.0882982688475,-21.0450300471153,11.9968012863268,-35.3615654408507,-32.1250728624408,-30.265761560733,81.7051067116878,-21.0724263370276,-31.1891480928456,12.361503182094
8.70416728748197,-12.0836100228011,-21.0921194017971,11.9415181455431,-35.2362890350778,-31.7824538386044,-30.1375367944157,82.1050422868709,-20.7101963979131,-30.6738430067902,11.7987088854073
9.20757869597205,-12.0822142134288,-21.1385922818498,11.8831232375174,-35.0855133444377,-31.4087718186807,-29.9834662418841,82.5070014179063,-20.3251369303279,-30.1821178229571,11.2752900304046
9.72493948513602,-12.0843378116608,-21.1839409504208,11.8212090003981,-34.9079623961356,-31.0026930955787,-29.801363809208,82.9112041344072,-19.9164202425997,-29.7003206407313,10.7778652541834
10.2579253526798,-12.0901651268636,-21.227616381217,11.7553363520351,-34.7026143397066,-30.5630372043993,-29.5891693970115,83.3179653281148,-19.4834458559775,-29.2164335188865,10.2944975366001
10.8082693586291,-12.0998312811088,-21.26902803143,11.6850389376772,-34.4687330047257,-30.0888031914364,-29.3449760335839,83.7276820035089,-19.0258510077333,-28.7201124159105,9.81473867169226
11.3776647485656,-12.113416264588,-21.3075435267992,11.6098288561389,-34.2058939668532,-29.579194730821,-29.0670553593053,84.1408168848426,-18.5435167780417,-28.2026756625344,9.3296285143913
11.9676601023757,-12.1309397378476,-21.3424883997401,11.5292040484192,-33.914004328885,-29.0336434992959,-28.7538813735121,84.5578790432025,-18.0365704505269,-27.6570620984327,8.83166914866278
12.5795521084401,-12.1523567305993,-21.3731460504533,11.4426574494396,-33.5933156246235,-28.4518302213815,-28.4041524403084,84.9794023451853,-17.5053847677509,-27.0777748967025,8.31478858985559
13.2142816981091,-12.1775543582197,-21.3987581132438,11.3496878558568,-33.2444294381579,-27.8337028407997,-28.0168115893567,85.4059225955738,-16.950574722714,-26.4608221378515,7.77430339717447
13.8723391799749,-12.2063496436405,-21.4185254082836,11.2498122824258,-32.8682954980581,-27.179491337861,-27.591065162452,85.8379542465735,-16.3729924384238,-25.8036606406421,7.20688491502398
14.5536833941644,-12.2384885030965,-21.431609641607,11.1425794120406,-32.4662021713267,-26.4897187772729,-27.1263998628009,86.2759674873807,-15.7737205547006,-25.1051454866312,6.61052987274201
15.2576788554115,-12.2736459326723,-21.4371359818451,11.0275836213483,-32.0397594639313,-25.7652082306639,-26.622598255105,86.7203664305565,-15.1540643973357,-24.3654841243128,5.98453277260788
15.9830535262404,-12.3114274188475,-21.434196594742,10.9044789973305,-31.5908748398906,-25.0070852722535,-26.079752731488,87.1714689956229,-14.5155430678944,-23.586191026932,5.32945495630194
16.7278784430371,-12.3513715885136,-21.4218551623036,10.7729927495039,-31.1217223924692,-24.2167757932734,-25.498277901512,87.6294889744938,-13.8598794707564,-22.7700367804526,4.6470835673826
17.4895690821197,-12.3929541082105,-21.3991523573517,10.6329374532778,-30.6347061242983,-23.395998922576,-24.8789212835721,88.0945206657859,-13.1889891947401,-21.9209843248075,3.94037290074077
18.26490723206,-12.4355928347021,-21.365112191186,10.4842216140713,-30.1324183004775,-22.5467548831933,-24.2227720639749,88.5665263913336,-12.5049680838359,-21.0441049101884,3.2133608869046
19.0500813061307,-12.4786542075515,-21.3187491096881,10.3268581079528,-29.6175940133904,-21.6713076693863,-23.531267547263,89.045327146573,-11.8100782427185,-20.145467163567,2.47105471523213
19.8407425004867,-12.5214608567332,-21.2590756895482,10.1609701293163,-29.0930632286923,-20.7721625156503,-22.8061967564255,89.5305965736147,-11.1067321249523,-19.2319944688343,1.71928182878893
20.6320739495806,-12.5633003704496,-21.1851107853544,9.98679435767147,-28.561701664951,-19.8520382651029,-22.0497004770681,90.0218583819151,-10.3974742828803,-18.3112885579122,0.964505599159212
21.4188699930565,-12.6034351273528,-21.0958879989051,9.80468114185026,-28.0263818969755,-18.9138349275941,-21.2642669066368,90.518487283637,-9.68496035933049,-17.3914205773049,0.213608656255007
22.1956227813352,-12.6411130456883,-20.9904643795219,9.61509158816237,-27.4899260683637,-17.9605969309285,-20.4527219945598,91.0197134631145,-8.97193298226525,-16.480694601413,-0.526349264746923
22.9566136480766,-12.6755790472226,-20.8679293112511,9.41859152689742,-26.9550615516709,-16.9954727995057,-19.6182135565532,91.5246305652087,-8.26119437743876,-15.5873921806575,-1.24838845755069
23.6960069169948,-12.7060869857134,-20.7274135904956,9.21584241987908,-26.4243807997649,-16.02167222871,-18.764188336806,92.0322071661036,-7.55557573112195,-14.7195095205897,-1.94586800364719
24.4079440538546,-12.731911755336,-20.5680987360624,9.00758936586619,-25.90030648417,-15.0424217178708,-17.8943614098927,92.5413016699175,-6.85790358688809,-13.8845007572483,-2.61273124004207
25.086636302211,-12.7523612772379,-20.3892265962646,8.79464646639673,-25.3850628144519,-14.0609200246323,-17.0126776787385,93.0506805323209,-6.17096380276627,-13.089041173628,-3.2437230672862
25.7264541456344,-12.7667880618469,-20.1901093239458,8.57787993348872,-24.8806536812043,-13.0802946890983,-16.1232657081855,93.5590396308886,-5.49746380031708,-12.338823072733,-3.83456588716708
26.3220121200195,-12.7746000565141,-19.970139782722,8.35818944386764,-24.3888479733198,-12.1035607731438,-15.2303846724206,94.0650284793877,-4.83999402069073,-11.6383946535716,-4.38208396287931
26.8682476621655,-12.7752705055584,-19.7288024264309,8.13648834906548,-23.9111721023578,-11.1335828108619,-14.3383657155815,94.5672768265346,-4.20098970020997,-10.9910490291935,-4.88426992512797
27.3604928323849,-12.768346568484,-19.4656846549081,7.91368340995982,-23.4489094426535,-10.1730408004184,-13.451549462318,95.064422994748,-3.58269428414869,-10.3987668998444,-5.34029152118347
27.7945378969287,-12.7534564671662,-19.1804885902467,7.69065473310811,-23.0031060889417,-9.22440089464537,-12.5742217278432,95.5551431108722,-2.98712594553799,-9.86221275180151,-5.75044103484088
28.1666859070863,-12.7303149745193,-18.8730431426059,7.46823656700588,-22.5745820693272,-8.28989126177852,-11.7105496535047,96.0381801899741,-2.41604870033071,-9.38078116190125,-6.1160336756978
28.4737975709245,-12.6987271173444,-18.5433161536344,7.24719959040135,-22.163946957185,-7.37148338410575,-10.864520530995,96.5123719063009,-1.87094950086609,-8.95268713648718,-6.43926434281452
28.7133258839474,-12.6585900356182,-18.1914263280079,7.02823529055884,-21.7716187225611,-6.47087885113972,-10.0398854689149,96.9766758629549,-1.3530224618086,-8.57509256508004,-6.72303431802867
28.8833401678393,-12.6098930122768,-17.8176545903226,6.81194297465433,-21.3978446555758,-5.58950151115616,-9.24010980402604,97.4301912605207,-0.863161023692575,-8.2442598677754,-6.97076053598522
28.9825393615347,-12.5527157603436,-17.4224544318308,6.59881987677158,-21.0427232660048,-4.72849469704636,-8.4683317910186,97.8721760477003,-0.401958393173146,-7.95572370475328,-7.18618011124005
29.0102546142843,-12.4872251229467,-17.0064607429589,6.38925471665476,-20.7062261949384,-3.88872314987359,-7.72733065146871,98.3020588919444,0.0302839278102056,-7.70447204662211,-7.37316189140049
28.9664414429794,-12.4136703968098,-16.5704965758101,6.18352493668663,-20.3882193492807,-3.07077921985284,-7.01950456035953,98.7194456085286,0.433540208824969,-7.48512876070333,-7.5355351405017
28.8516619315161,-12.3323775273477,-16.1155772558111,5.98179769985863,-20.0884826664112,-2.27499291900209,-6.34685864314779,99.1241199943707,0.80803823346129,-7.29213094602999,-7.67694324705517
28.6670576632777,-12.2437424469468,-15.6429112636623,5.78413459019251,-19.8067281062408,-1.50144542847377,-5.71100259668014,99.5160392855319,1.15423205978067,-7.11989543739613,-7.80072779585468
28.4143142830534,-12.1482238396916,-15.1538973359642,5.59049982775418,-19.5426156278439,-0.749985724569191,-5.11315716466706,99.895324665969,1.47277127261651,-6.96297017828495,-7.90984565461524
28.0956187755434,-12.0463356136953,-14.6501172917525,5.40077168765555,-19.295767032318,-0.0202500638048576,-4.55416839952488,100.262247395315,1.764468220486,-6.81616750995031,-8.00681915507642
27.7136107174007,-11.9386393432514,-14.1333241961461,5.21475668495833,-19.0657776543691,0.688315873740727,-4.03452841558175,100.617211208868,2.03026465942755,-6.67467773459513,-8.0937172416575
27.2713289018053,-11.8257369051783,-13.6054256314744,5.03220595028428,-18.8522259785838,1.37643236865619,-3.55440116592658,100.960731690202,2.27119908755607,-6.53416244633763,-8.17216378554155
26.7721548423883,-11.708263475527,-13.0684620630579,4.85283308131278,-18.6546813505542,2.04495879722338,-3.11365164868003,101.293413336955,2.48837586225235,-6.39082800028323,-8.24336816601767
26.2197547309689,-11.5868809758426,-12.5245805571872,4.6763326365006,-18.4727100441901,2.69486483228976,-2.71187688431401,101.61592503862,2.68293696037498,-6.24148008233573,-8.30817267142089
25.618021446025,-11.4622719730188,-11.9760044133624,4.50239837863749,-18.3058800194772,3.32720016935011,-2.34843704270918,101.928974664846,2.85603699107602,-6.08356064896774,-8.36711120082243
24.9710181824491,-11.3351339646439,-11.4249995663167,4.33074041291579,-18.153764736742,3.94306341025076,-2.02248527461791,102.233283429919,3.00882182507065,-5.91516856979472,-8.42047406044663
24.2829251961359,-11.2061739434253,-10.873838838562,4.16110049703199,-18.0159463664718,4.543570890857,-1.73299511704095,102.529560662433,3.14241098370636,-5.73506523028522,-8.46837423438305
23.557991029817,-11.0761031359996,-10.3247652421687,3.99326498862354,-17.8920186496113,5.12982632683262,-1.47878474658033,102.818479575523,3.25788374805561,-5.54266623515724,-8.51081126445958
22.8004894125578,-10.9456318409247,-9.77995553581994,3.82707508801691,-17.7815895445097,5.70289215386308,-1.25853777912477,103.100654602833,3.35626880652492,-5.33802022549088,-8.54772971723877
22.0146828107757,-10.8154643235986,-9.24148517030233,3.66243419808198,-17.6842836775906,6.2637633716558,-1.07082069574244,103.37662083469,3.43853715700042,-5.12177568470183,-8.57907007666793
21.2047933630597,-10.6862937392248,-8.71129564545147,3.49931233841977,-17.5997445289739,6.81334459822041,-0.914097265999573,103.646816053799,3.50559791277001,-4.89513649902248,-8.60481071026231
20.3749816671559,-10.5587970434149,-8.19116517507486,3.33774761187544,-17.5276362486198,7.35243091858319,-0.786740520254008,103.911565828007,3.55829662535363,-4.65980703397676,-8.62500025719705
19.5293336206467,-10.4336298306106,-7.6826834068814,3.17784474720918,-17.4676450032992,7.88169296616138,-0.687042910494629,104.171072064402,3.59741572130348,-4.41792764218279,-8.63978035032777
18.6718552645961,-10.3114210377617,-7.18723077026259,3.01977077618873,-17.4194797729278,8.40166651209767,-0.613225337565301,104.425405353336,3.62367664183034,-4.17200181903001,-8.649399015798
17.8064753602398,-10.1927674775043,-6.70596284525273,2.86374798248646,-17.3828725242827,8.91274668379848,-0.56344573992916,104.674501327149,3.63774326970289,-3.92481662821937,-8.65421541663089
16.9370552606862,-10.0782282177955,-6.23979998054488,2.71004438623687,-17.3575776854372,9.41518680798965,-0.53580793422878,104.918161134227,3.64022623257103,-3.67935848525828,-8.65469684631545
16.0674055382408,-9.96831889224858,-5.78942223750133,2.55896217908687,-17.3433708314517,9.90910177209297,-0.528371357976379,105.156055997065,3.63168769609516,-3.43872683126112,-8.65140905123343
15.2013088040588,-9.86350609446811,-5.35526958858255,2.410824666165,-17.3400464813833,10.394475701579,-0.539162278142206,105.38773568879,3.61264631463484,-3.20604850927886,-8.64500106580858
14.3425482124122,-9.76420206385596,-4.93754714596596,2.26596235975674,-17.347414914415,10.8711736411407,-0.566186878261916,105.612640627014,3.58358209297218,-2.98439566389973,-8.63618577123617
13.4949412644152,-9.67075989378579,-4.53623504644395,2.12469887375508,-17.3652979524002,11.3389567997614,-0.607446413553648,105.830117149459,3.54494101371339,-2.77670973992035,-8.62571734105006
12.66237867889,-9.5834694828068,-4.15110248404502,1.9873372059456,-17.393523722049,11.7975007878053,-0.660954363589498,106.039435414754,3.49713937490107,-2.58573375070125,-8.61436664319918
11.8488682038113,-9.50255441362152,-3.78172526831769,1.85414691343261,-17.4319204839685,12.2464161549478,-0.724755272277642,106.239809287253,3.44056783890326,-2.41395450592407,-8.6028955658767
11.05858315507,-9.42816989087708,-3.42750619648146,1.72535260966698,-17.4803096863916,12.6852704397583,-0.79694477639697,106.430417534167,3.37559521336897,-2.26355598895143,-8.59203114067946
10.2959149335226,-9.36040180800867,-3.08769747076057,1.60112414323301,-17.5384984613205,13.1136108760646,-0.875690193446768,106.610425676496,3.30257198793969,-2.13638458002035,-8.58244024235357
9.56552735802528,-9.29926696180425,-2.7614243824682,1.48156876462509,-17.6062718179566,13.5309868869525,-0.959250971157967,106.779007863463,3.22183366731016,-2.03392632712884,-8.57470553699386
8.87240769648481,-9.24471439933102,-2.44770952630991,1.36672554301302,-17.6833848007563,13.9369715431592,-1.04599828555597,106.935368170057,3.13370399087911,-1.95729598029287,-8.56930323993622
8.22190386660631,-9.1966278586156,-2.14549688804074,1.25656223592705,-17.7695548853168,14.3311812536658,-1.13443308398035,107.078760760726,3.03849820438071,-1.90723707853681,-8.56658315646006
7.61972845713127,-9.15482924225572,-1.8536752449599,1.15097472206096,-17.8644549033133,14.7132930689291,-1.22320188310003,107.208508438821,2.93652661652971,-1.88413206907125,-8.56675142853559
7.07189775025169,-9.11908303954405,-1.57110041838858,1.04978898744812,-17.9677068162226,15.0830590980988,-1.3111096564799,107.324019218417,2.82809868569655,-1.88802124928395,-8.56985639131562
6.58456010847384,-9.08910159139675,-1.29661601403538,0.952765530462548,-18.0788766753488,15.4403176658625,-1.39712920732968,107.424800702436,2.71352779934767,-1.91862920732238,-8.57577792695732
6.16366082449926,-9.06455107950061,-1.02907237417737,0.859605942484638,-18.1974710884724,15.7850009580801,-1.48040654125658,107.510472206571,2.59313672973976,-1.97539735659443,-8.58422065948761
5.81440582625562,-9.04505811895433,-0.767343542217707,0.769961339386767,-18.3229354537004,16.117139027339,-1.56026192918961,107.580774709471,2.46726351196769,-2.05752112001093,-8.59471124667376
5.54054443118175,-9.03021683253406,-0.510342111155058,0.68344226490386,-18.4546541364232,16.436860154511,-1.63618655658441,107.635578819781,2.33626725456227,-2.16399033958056,-8.60659990346944
5.34359609219028,-9.0195962710105,-0.257031900890397,0.599629658318192,-18.5919526782369,16.7443876941634,-1.70783486725318,107.674891020447,2.20053321067698,-2.29363154614647,-8.61906616319739
5.22225630267014,-9.01274802282904,-0.00643848485806618,0.518086476626683,-18.7341020353871,17.0400336680023,-1.77501292506137,107.698858474974,2.06047633735997,-2.44515077690936,-8.63112876994344
5.17224220087544,-9.00921384882378,0.242342344970518,0.438369584985837,-18.8803247334601,17.3241894995689,-1.83766333187071,107.707772661263,1.91654255695062,-2.61717565246044,-8.64165950494354
5.18670939436358,-9.0085331897292,0.490138034204125,0.360041569376939,-19.0298027044208,17.5973143836366,-1.89584742745719,107.702072049372,1.76920700464641,-2.80829542930217,-8.64940066718171
5.25713725213072,-9.01025041012204,0.737694473240274,0.282682167112695,-19.1816864770742,17.8599218357729,-1.94972561866302,107.682343977886,1.61896869381658,-3.0170977487688,-8.65298582762557
5.37439640982788,-9.01392164828546,0.98567277560788,0.205899044113483,-19.3351053463921,18.1125649698485,-1.99953672608347,107.64932582146,1.46634124391182,-3.24220085088863,-8.65096334317339
5.5296956102347,-9.0191211401574,1.23464744880815,0.129337672254472,-19.4891781461121,18.3558210210629,-2.04557720732347,107.603905482692,1.3118395755968,-3.48228017465646,-8.6418219687039
5.71522788114762,-9.02544688633524,1.4851057823569,0.0526900805145792,-19.643024276063,18.5902755921082,-2.08818103213639,107.547121185683,1.15596275924357,-3.73608855210014,-8.62401778348994
5.92448631458197,-9.03252553783424,1.73744827912093,-0.0242977236779352,-19.7957746809287,18.8165070645688,-2.12770085950358,107.480160503252,0.999173475202861,-4.00246958159203,-8.59600158380532
6.15231541256438,-9.04001638727656,1.99198995888283,-0.101819837509116,-19.9465825383828,19.0350715855508,-2.16449101104705,107.404358525497,0.84187477199157,-4.28036416238072,-8.55624589855365
