Finger Velocity,Scap_X,Scap_Y,Scap_Z,Shoulder horiz abd-adduction,Shoulder flexion-extension,Shoulder internal-external rotation,elbow flexion-extension,forearm pronation-supination,wrist flexion-extension,wrist radial-ulnar deviation
1.87442949501376,-11.9360195662863,-22.3058909032724,10.0863025595833,-30.874085449932,-36.2808677228013,-24.2249758893993,77.6027967512456,-16.2693826084536,-29.0158386692701,10.258096598349
2.22669738580095,-11.9410476375151,-22.3439049650817,10.0140505317093,-30.8965038365486,-36.188304504749,-24.1977535143347,77.6730942503173,-16.1478274584788,-28.8017326077041,9.89409283942487
2.61946154780362,-11.9510387526857,-22.3821715597601,9.9382635552593,-30.907239315778,-36.0764773777317,-24.1538701911502,77.7440219164904,-16.016208453199,-28.5951476984865,9.54886138126656
3.05224086294532,-11.9663087195366,-22.4198429086299,9.8588990574395,-30.9056130221194,-35.9432394063063,-24.0918529322417,77.81609231892,-15.8741594634367,-28.3789771220269,9.20757135543503
3.5246036314069,-11.9870957368711,-22.4560182098086,9.77592921940156,-30.8910912401878,-35.7864954771155,-24.0103407983289,77.8899146374911,-15.7213409342484,-28.1371674053441,8.8563589613756
4.03608358173154,-12.0135502244422,-22.4897601114014,9.68933850501615,-30.8632949801701,-35.6042345279209,-23.9081071814026,77.9661955804323,-15.5574353666678,-27.8551157111956,8.4826845296391
4.58612193132039,-12.045726305256,-22.5201123279483,9.59912090508765,-30.8220060547319,-35.394561695811,-23.7840794612142,78.0457398128206,-15.3821417529144,-27.5199719853427,8.07559659099669
5.17402830832405,-12.0835752386719,-22.5461179668062,9.50527708674505,-30.7671694872968,-35.1557296011059,-23.6373555217374,78.1294499985653,-15.1951695740988,-27.1208584438103,7.62591652996588
5.79895472020664,-12.1269410495758,-22.5668380988656,9.40781162272377,-30.6988921832165,-34.886167985512,-23.4672166929351,78.2183264828776,-14.9962330730617,-26.6490213836927,7.12635982564726
6.45987839267415,-12.1755585355453,-22.5813700795277,9.30673044454478,-30.6174379110748,-34.5845109649806,-23.2731367854392,78.3134665586135,-14.7850465805098,-26.0979296098751,6.57160908243777
7.15559059215944,-12.2290537634608,-22.588865092588,9.20203862304393,-30.5232187662438,-34.2496212476178,-23.0547870192921,78.4160631784323,-14.5613217018233,-25.4633306911142,5.95835082923891
7.88468945655605,-12.2869470925108,-22.5885443551466,9.09373853889583,-30.4167834200034,-33.8806107917395,-22.8120368018358,78.5274029024321,-14.3247671461316,-24.7432718677049,5.28528348757153
8.64557548742888,-12.348658684746,-22.5797134060354,8.98182847385486,-30.2988025892082,-33.4768575059439,-22.5449504555684,78.6488628094569,-14.0750918736192,-23.9380877914309,4.55309902990213
9.43644879636962,-12.4135163893824,-22.5617739275882,8.86630163300248,-30.1700522782083,-33.0380176929752,-22.2537801042637,78.7819060482165,-13.8120120475486,-23.0503532403515,3.76443650975591
10.255307516517,-12.4807658151915,-22.5342326285587,8.7471455961427,-30.0313954290562,-32.5640340064524,-21.9389549855822,78.9280756624386,-13.5352620223517,-22.084796150109,2.9238024818955
11.0999470314791,-12.5495823392514,-22.496706830485,8.6243421890491,-29.8837626585619,-32.0551387397306,-21.6010674883043,79.0889862967474,-13.2446093011278,-21.0481651830836,2.03745183408424
11.9679598644574,-12.619084741887,-22.448926530984,8.49786776012393,-29.7281327590819,-31.5118523195634,-21.2408562370941,79.2663133835526,-12.9398730795133,-19.9490468211014,1.11322301429706
12.8567362251506,-12.6883501073054,-22.3907328548798,8.36769384217692,-29.5655135942065,-30.934976946868,-20.8591865807092,79.4617794340271,-12.6209456892454,-18.7976295397999,0.160324070398038
13.763465338502,-12.7564295880984,-22.3220729447738,8.23378816946628,-29.3969239354312,-30.3255854171242,-20.4570288847722,79.6771371144524,-12.2878159894665,-17.6054166807257,-0.810929971560132
14.6851377806014,-12.8223646017272,-22.2429914823098,8.09611600562176,-29.2233766740421,-29.6850052635701,-20.0354350920209,79.9141488847417,-11.9405935365153,-16.3848946257277,-1.78942268792901
15.6185491236305,-12.8852030120121,-22.153619162331,7.95464171902015,-29.0458637205348,-29.0147984958312,-19.5955140963865,80.1745631090471,-11.5795322005167,-15.1491679791695,-2.76357375502601
16.5603052430934,-12.944014853044,-22.0541585583093,7.80933052046204,-28.8653427843073,-28.3167373502588,-19.1384065820954,80.4600867189375,-11.2050518071184,-13.9115776972816,-3.72169286288902
17.5068296659314,-12.9979071801327,-21.9448679180109,7.66015025766872,-28.6827261136747,-27.5927766140677,-18.6652600950523,80.7723547121545,-10.8177563830862,-12.6853206130032,-4.65233186320975
18.4543733371455,-13.0460376814317,-21.8260435138625,7.5070731477812,-28.4988711718445,-26.8450232159574,-18.1772052214518,81.1128969894459,-10.4184476799721,-11.4830891098614,-5.54461657420997
19.3990271556706,-13.0876267486595,-21.6980012373102,7.35007732667805,-28.3145731326568,-26.0757038774108,-17.6753338267523,81.4831032477551,-10.0081328345152,-10.3167477783809,-6.38854158905268
20.3367375789322,-13.1219677775864,-21.5610581582764,7.18914810351716,-28.1305590100107,-25.2871316852536,-17.1606803406647,81.8841868398563,-9.58802528556994,-9.19706013991943,-7.17521525866334
21.2633255222631,-13.1484355421803,-21.4155147599244,7.02427883064069,-27.9474831985153,-24.4816724744504,-16.634207046859,82.3171486625556,-9.15953838598329,-8.13347367115673,-7.89704697487877
22.1745086876593,-13.1664925577854,-21.2616385065665,6.85547133292241,-27.7659242056029,-23.6617118978391,-16.0967942361208,82.7827422378002,-8.72427149986563,-7.13396628180934,-8.54787406302665
23.0659273505274,-13.1756934181743,-21.099649318058,6.68273588337044,-27.5863823886692,-22.8296240091,-15.5492359033312,83.2814411977576,-8.28398873845061,-6.20495285411019,-9.12303024259912
23.9331735180101,-13.1756871580797,-20.9297074177791,6.50609075536975,-27.4092785542091,-21.9877421060605,-14.9922414223588,83.8134103730795,-7.84059084291799,-5.35124693400936,-9.619361251278
24.7718232534032,-13.1662177540011,-20.7519039025812,6.3255614186804,-27.2349533113104,-21.1383324823848,-14.4264433399361,84.3784816145107,-7.39608105284206,-4.57607040308084,-10.0351956120679
25.5774718433679,-13.1471229270722,-20.5662542600081,6.14117947318153,-27.0636670975569,-20.2835716203038,-13.8524111120541,84.9761353597706,-6.95252608575776,-3.88110299386507,-10.3702796038056
26.3457713731343,-13.1183314485823,-20.3726949357244,5.95298143162156,-26.8956008241401,-19.4255272275036,-13.2706702847159,85.6054888022962,-6.51201358240748,-3.26656367120585,-10.6256854237188
27.0724701743205,-13.0798591703235,-20.1710829342617,5.76100747025665,-26.7308571299375,-18.5661433839866,-12.6817263176345,86.2652913369567,-6.07660753973953,-2.73131683354611,-10.8037006285986
27.7534535242938,-13.0318040107409,-19.9611983223328,5.56530026392314,-26.5694622891058,-17.7072299275924,-12.0860919909956,86.9539277577239,-5.64830335981173,-2.2729975770727,-10.9077055641823
28.3847849084203,-12.9743401286625,-19.7427494058929,5.36590401209185,-26.4113688696528,-16.8504560717141,-11.4843171432021,87.669429468905,-5.2289841816474,-1.88815157729642,-10.942043916896
28.962747109415,-12.9077115138438,-19.5153802831477,5.16286375034109,-26.256459275198,-15.9973481116955,-10.8770193658505,88.4094937486814,-4.82038012736841,-1.5723862608897,-10.911889951888
29.4838823628174,-12.8322252186226,-19.278680442053,4.95622503199943,-26.1045503075722,-15.149290939617,-10.2649142195103,89.1715108737287,-4.42403198562904,-1.32053071372636,-10.8231146210638
29.9450308149884,-12.7482444437564,-19.0321960653596,4.74603405590708,-25.9553988633412,-14.3075329656503,-9.64884351970992,89.9525986811301,-4.04126068560706,-1.12680208846241,-10.6821516791796
30.3433665397515,-12.6561816701233,-18.7754427156806,4.53233830221507,-25.8087088316075,-13.4731939547717,-9.0298002801989,90.7496439188623,-3.67314369310228,-0.98497613430835,-10.4958642767482
30.6764304109595,-12.5564919980319,-18.5079190905306,4.31518771533251,-25.6641392034756,-12.6472752333996,-8.40894900122174,91.5593495322058,-3.32049918918005,-0.888559005197221,-10.2714121734185
30.9421591892667,-12.4496668231093,-18.2291215642786,4.09463644339819,-25.5213133391713,-11.8306716902101,-7.78764015612537,92.3782868605803,-2.98387857478579,-0.830956886345565,-10.0161197215069
31.1389102601074,-12.3362279464264,-17.9385592697083,3.87074511035753,-25.3798292671032,-11.0241849778544,-7.16741794469281,93.202951579378,-2.66356749655905,-0.805639367234767,-9.73734511882428
31.2654815537692,-12.2167221862584,-17.6357695045197,3.64358356183293,-25.2392708169941,-10.2285373178315,-6.55002062359788,94.0298221075178,-2.35959523038008,-0.806292050464076,-9.44235207693537
31.3211262845936,-12.0917165242969,-17.3203332598965,3.41323399168615,-25.0992193354995,-9.44438532877354,-5.93737297903959,94.8554191028416,-2.07175190296317,-0.826953818499278,-9.13818584872064
31.3055622616146,-11.961793774688,-16.9918906519069,3.17979432702376,-24.9592657160388,-8.67233334436842,-5.33157077100081,95.6763645782051,-1.79961268236608,-0.862134621185314,-8.83155630753904
31.218975644044,-11.8275487134643,-16.6501560051869,2.94338173203154,-24.8190224937749,-7.91294575003798,-4.73485725171628,96.4894390968659,-1.54256773053999,-0.906910576521723,-8.52873128825656
31.0620191385686,-11.6895845628239,-16.2949323140396,2.7041360910546,-24.6781357891944,-7.16675792553076,-4.1495921392421,97.2916354611054,-1.29985639937413,-0.95699442697029,-8.23544355978461
30.8358047580326,-11.5485097018775,-15.9261247977977,2.46222334842386,-24.5362969059967,-6.43428542442252,-3.57821371059421,98.0802073104566,-1.07060389987211,-1.00878074258592,-7.95681452866322
30.5418913794167,-11.4049344737993,-15.5437532672502,2.21783860810055,-24.3932533938538,-5.71603106358117,-3.02319497103277,98.8527111126186,-0.853858534085578,-1.0593665345004,-7.69729707621562
30.1822674498492,-11.2594679721213,-15.1479630194572,1.97120891760857,-24.2488193776587,-5.0124896513331,-2.48699514870278,99.6070401710601,-0.648627594766158,-1.10654905097513,-7.46063890195043
29.7593292896529,-11.1127147128434,-14.7390339827982,1.72259566846495,-24.1028849328173,-4.32415015389692,-1.97200803262761,100.341449485303,-0.453910214691747,-1.14880344667433,-7.24986654683845
29.2758555283201,-10.9652711372719,-14.3173878465985,1.47229653809706,-23.9554242512699,-3.65149518246588,-1.48050889087553,101.054570573263,-0.268725752792919,-1.18524370497143,-7.06728908231287
28.7349782803142,-10.8177219443393,-13.8835929193921,1.22064688385883,-23.8065023071266,-2.99499778619507,-1.01460186065462,101.745415691673,-0.0921366829733105,-1.21557059306153,-6.91451943120601
28.1401517205978,-10.6706363099399,-13.4383664468839,0.968020490654895,-23.6562797165506,-2.3551156751208,-0.576169788924461,102.413371263349,0.0767346465963014,-1.24001052469925,-6.79251055787537
27.4951187531234,-10.5245640963644,-12.9825740809392,0.714829577617903,-23.5050155110496,-1.73228317486643,-0.166828513253218,103.058180729991,0.23869561640743,-1.2592490353157,-6.70160340995463
26.8038764780861,-10.380032177972,-12.5172261540249,0.461523983888113,-23.3530676034312,-1.12690140650509,0.212112510828949,103.67991748083,0.394479137500444,-1.27436218544446,-6.64158352591551
26.070641155037,-10.2375410157684,-12.0434704276109,0.208589472140419,-23.2008907985221,-0.539327345385936,0.559681527667158,104.278948931189,0.544745098114892,-1.28674864941432,-6.61174354916727
25.2998133291768,-10.0975616117473,-11.5625810752849,-0.0434548911297623,-23.0490322639756,0.0301374915059247,0.875266351888028,104.855893200774,0.690086539712132,-1.29806459066999,-6.61094934750405
24.4959437381986,-9.9605329611507,-11.0759438172784,-0.294060296457451,-22.8981244312513,0.581257952584445,1.15862581952228,105.411570135272,0.831039366053102,-1.31016274977706,-6.6377078791763
23.6637005485326,-9.82686008794959,-10.5850373075969,-0.542652688301202,-22.748875367426,1.11387500311342,1.40989035489029,105.946948607567,0.968094245089611,-1.32503652481122,-6.69023529983501
22.8078383850167,-9.6969126935582,-10.0914110629213,-0.788638175102958,-22.6020567642073,1.62791364279406,1.62955174853102,106.463092119821,1.10170938230972,-1.34476923494057,-6.76652405861789
21.9331695196299,-9.57102438318723,-9.59666040466498,-1.03140931544935,-22.4584898193622,2.12338842505008,1.81844279694662,106.961104706422,1.23232299380507,-1.3714882577305,-6.86440790541097
21.0445374760035,-9.44949238009247,-9.10239905534017,-1.2703522217285,-22.3190294006728,2.600406166533,1.97770793743554,107.442079025844,1.36036451570648,-1.40732335949416,-6.98162384772745
20.1467931899354,-9.3325776132656,-8.61023017492238,-1.50485438211932,-22.1845469533011,3.05916561838474,2.10876637343648,107.907048355942,1.48626379153944,-1.45436833486594,-7.11587017276066
19.2447737444699,-9.22050507218614,-8.12171672892046,-1.73431304209532,-22.0559126354054,3.49995406975598,2.21326941725511,108.356943998785,1.61045765946875,-1.51464505011713,-7.26485969375047
18.3432835725591,-9.11346435389354,-7.63835214320166,-1.9581439239601,-21.9339771604813,3.92314105488908,2.29305389688126,108.79255936588,1.7333935261861,-1.59006911809845,-7.42636738449219
17.4470778902577,-9.01161036947058,-7.16153222395689,-2.17579001854939,-21.8195538055963,4.32916952564675,2.35009350787097,109.214521746725,1.85552967196784,-1.68241667351709,-7.59827153772535
16.5608479855304,-8.9150642150302,-6.69252929997473,-2.38673016718414,-21.7134010231495,4.71854501391316,2.38644995123202,109.623272462097,1.97733217763153,-1.7932920264498,-7.77858756067366
15.6892078353256,-8.82391423558867,-6.23246946212513,-2.59048716145024,-21.6162060718589,5.09182341367669,2.40422557929492,110.019055782558,2.09926849018241,-1.92409631947939,-7.965493560732
14.8366813459735,-8.73821731860807,-5.78231362170832,-2.78663511625112,-21.5285700508838,5.44959803732983,2.40551907026875,110.401916674528,2.22179775040861,-2.07599765768163,-8.15734701007508
14.0076892952065,-8.65800045598713,-5.34284290315778,-2.97480590506598,-21.450994666217,5.79248655390934,2.39238537585176,110.771707131804,2.34535810721251,-2.24990346591804,-8.35269199760338
13.2065347830805,-8.5832626136904,-4.91464866720092,-3.15469446627014,-21.3838709791111,6.12111833769607,2.366800851652,111.12810055398,2.47035136020902,-2.44643601219508,-8.55025684636585
12.4373856634406,-8.5139769449149,-4.49812726127484,-3.32606278962756,-21.3274702946889,6.43612267751322,2.33063411934121,111.470613344095,2.59712540923679,-2.66591210802752,-8.74894218344964
11.7042520331015,-8.45009337376948,-4.09347942648086,-3.48874239441335,-21.2819372613261,6.73811822584354,2.28562287032326,111.798632640086,2.72595512629272,-2.90832797046638,-8.94779991711668
11.0109564441178,-8.39154156128756,-3.70071415356499,-3.64263514358674,-21.2472851823772,7.027703993089,2.23335654355008,112.11144890461,2.85702237128209,-3.17335012771346,-9.14600401460228
10.3610941811926,-8.33823424157597,-3.31965667234309,-3.78771230761297,-21.2233935020993,7.30545211144415,2.17526460776226,112.408291998892,2.99039592812734,-3.46031308822204,-9.34281445047451
9.7579809147539,-8.29007088136404,-2.94996017821726,-3.92401188116861,-21.2100074182604,7.57190250746163,2.11261004577572,112.688369360706,3.12601213343043,-3.76822428015558,-9.53753614113226
9.20458562303029,-8.24694157576028,-2.59112084289904,-4.05163424811799,-21.2067395829474,7.82755953634203,2.04648756607114,112.950904979241,3.26365690253265,-4.09577651354548,-9.72947503358554
8.70344828991726,-8.20873105566651,-2.24249561944595,-4.17073637259713,-21.2130738621758,8.07289054879983,1.97782603911899,113.195177980666,3.40294974192655,-4.44136794451042,-9.91789374455825
8.25658491342337,-8.17532265472425,-1.90332233044945,-4.28152476023001,-21.2283711219927,8.30832628954579,1.90739465284977,113.420559770971,3.54333021295961,-4.80312925728378,-10.1019692386313
7.86538688078867,-8.14660206825605,-1.57274152157811,-4.38424748399165,-21.2518769933377,8.53426297011043,1.83581229119109,113.626548802985,3.68404721814867,-5.17895753750325,-10.2807549890439
7.53052716696727,-8.12246073486396,-1.24981956757946,-4.47918560882515,-21.2827315454198,8.75106581383548,1.76355965810779,113.812802145756,3.82415142150717,-5.56655608510475,-10.4531498863179
7.25189048467462,-8.10279868305578,-0.933572524876608,-4.56664437882965,-21.3199807744418,8.95907382457215,1.69099369360629,113.979163156113,3.96249106623589,-5.96347919926144,-10.6178758507647
7.02854601839676,-8.08752670561526,-0.622990226224606,-4.64694454374651,-21.3625897979984,9.15860547712619,1.61836385017266,114.125684694103,4.097711403122,-6.36718075043751,-10.7734656560636
6.85877740403877,-8.07656774786702,-0.317060110933041,-4.72041418577122,-21.4094576355895,9.34996497789497,1.54582980848777,114.252647480223,4.22825788860815,-6.77506512814638,-10.9182618808306
6.74017456202201,-8.0698574235232,-0.014790286465324,-4.78738135520488,-21.4594334403754,9.53344871543442,1.47348020304561,114.360573351993,4.35238324351535,-7.1845389312053,-11.0504272104452
6.66977814306446,-8.06734360905411,0.284768671200091,-4.84816773986275,-21.5113340121388,9.70935152124689,1.4013519046791,114.450233330237,4.46815836953963,-7.59306158741875,-11.1679655860771
6.64425447991713,-8.06898511497675,0.58250364711904,-4.90308349870294,-21.5639623651033,9.87797238889286,1.32944938181887,114.52265054009,4.5734870042489,-7.99819299538998,-11.2687530238262
6.66007205906828,-8.07474948172975,0.879221075981108,-4.95242330517049,-21.6161270594574,10.0396193476597,1.25776364714374,114.579098141679,4.66612387424385,-8.39763630839843,-11.3505763752352
6.71365213054664,-8.08460998957337,1.17563156119838,-4.99646357782164,-21.6666619470828,10.1946132490968,1.18629029189967,114.621092513447,4.74369600119992,-8.78927414616501,-11.4111779237501
6.80147492789101,-8.09854200463371,1.47233731968701,-5.03546082337172,-21.7144459388151,10.3432902970494,1.11504611744207,114.650382003263,4.80372674923821,-9.17119681851051,-11.4483035364014
6.92013516253978,-8.1165188105959,1.7698226563886,-5.06965097944848,-21.7584223756196,10.4860032307255,1.04408390290009,114.66893161947,4.84366219094507,-9.54172155511028,-11.459752117047
7.06635168806986,-8.13850709836351,2.06844757426794,-5.09924962023711,-21.7976175795133,10.6231211497151,0.973504904764428,114.678904072859,4.86089940460881,-9.89940223447701,-11.4434243265139
7.23694367771463,-8.16446230070904,2.3684445298478,-5.12445287224537,-21.8311581677997,10.7550280419083,0.903468753481418,114.682637602941,4.85281636513689,-10.2430296672003,-11.3973689308438
7.42878854835852,-8.19432396420288,2.66991826047039,-5.14543887299163,-21.8582867267291,10.8821201320636,0.834200471254088,114.682621033288,4.81680312722819,-10.5716230786353,-11.3198256754102
7.6387759712432,-8.22801135010479,2.9728485428974,-5.16236959283495,-21.8783754508395,11.0048022059056,0.765994379703388,114.681466502368,4.75029401432927,-10.8844140014599,-11.2092641833202
7.86376909526624,-8.26541945337522,3.2770956924561,-5.17539283558113,-21.8909373670991,11.1234830852203,0.699214713014037,114.681880303412,4.65080053387484,-11.1808242560228,-11.0644189377765
8.10058001803853,-8.30641562395575,3.5824085700694,-5.18464424222053,-21.895634793942,11.2385704422142,0.634292824248975,114.686632235702,4.51594476227184,-11.4604399944999,-10.884320839757
8.34596263680275,-8.35083696276772,3.88843482160244,-5.1902491468977,-21.8922847452686,11.3504651517717,0.571720980212734,114.698523824219,4.34349299588809,-11.7229838751413,-10.6683260799093
8.59662289450285,-8.3984886436084,4.19473302513627,-5.19232417520793,-21.8808610752052,11.4595553859453,0.51204287461158,114.720355715622,4.13138953394809,-11.9682873270786,-10.4161430996265
8.84924431200113,-8.44914328267126,4.50078637102864,-5.19097852695023,-21.8614932593222,11.5662106513144,0.455841129582984,114.754894516865,3.87779051715388,-12.1962646131627,-10.127858230906
