Finger Velocity,Scap_X,Scap_Y,Scap_Z,Shoulder horiz abd-adduction,Shoulder flexion-extension,Shoulder internal-external rotation,elbow flexion-extension,forearm pronation-supination,wrist flexion-extension,wrist radial-ulnar deviation
0.783081395321297,-12.0387490680327,-21.7657677491503,12.9354328163418,-34.604753604963,-33.0041190233502,-28.5684808233311,71.9353952730815,-21.262018666101,-73.2981802993143,55.7010993133792
0.868314368299385,-12.0465045421089,-21.7666074266143,12.9590182767365,-34.680232746416,-32.9575026257726,-28.5804586974685,72.0762427884551,-21.1806901266325,-72.2360364292173,54.6931851388049
0.960590878821563,-12.0536696945916,-21.7679352216579,12.9820073488922,-34.7654049215242,-32.9118428761937,-28.5937692590174,72.2304066063561,-21.1050858232378,-71.1394799363381,53.634625502374
1.05989323126136,-12.0604807301197,-21.7697268247228,13.0041907638323,-34.8603412202418,-32.8673916886893,-28.6084429378559,72.3982597166081,-21.0346543429782,-70.0131642969034,52.5276954292557
1.16614892164979,-12.0672011145237,-21.7719393719573,13.0253409374005,-34.964969418339,-32.8244243714868,-28.6245030247888,72.5800562460812,-20.9686570928913,-68.8624144658788,51.3754699135119
1.27922754114951,-12.0741147899678,-21.7745132391928,13.045215659287,-35.0790638837582,-32.7832358502966,-28.6419629551719,72.7759163482145,-20.9061760053163,-67.6932161852387,50.1818535873451
1.39893706368315,-12.0815186427093,-21.7773742165256,13.0635624426008,-35.2022373960666,-32.7441360516392,-28.6608233268871,72.9858122971636,-20.846126325903,-66.5121802054221,48.9515817651089
1.52501986313132,-12.089714400411,-21.7804359781963,13.0801234516641,-35.3339351473481,-32.7074445472466,-28.6810686728419,73.20955626338,-20.7872744591968,-65.3264778110393,47.690188231431
1.65714879871727,-12.0990001485642,-21.7836027615606,13.0946409059394,-35.4734311705838,-32.6734845790433,-28.7026640096483,73.4467902401196,-20.7282606900889,-64.1437457207776,46.4039369663456
1.79492369551303,-12.1096616641368,-21.7867721712822,13.1068628391708,-35.619827411364,-32.6425765999701,-28.7255511901382,73.6969785629048,-20.6676264357632,-62.971960737169,45.0997174849953
1.93786853119507,-12.1219637690901,-21.7898380298543,13.1165490756443,-35.7720556202426,-32.6150314784667,-28.7496450988433,73.9594034151297,-20.6038455177301,-61.8192872547083,43.7849064106942
2.08542961911203,-12.136141906836,-21.7926932025635,13.1234772708531,-35.9288821962031,-32.5911435230135,-28.7748297468272,74.2331636428611,-20.5353587838491,-60.6939035673579,42.4672009642628
2.23697504998703,-12.1523941409587,-21.7952323335088,13.127448852732,-36.0889160569743,-32.5711834869264,-28.8009543448164,74.517177111785,-20.4606112632569,-59.6038154377611,41.1544328208937
2.39179561924615,-12.1708737674404,-21.7973544387694,13.1282946929709,-36.2506195502386,-32.5553917118551,-28.8278294601085,74.810186731968,-20.3780909102564,-58.5566671824264,39.8543728312112
2.54910742391047,-12.1916827191358,-21.7989653128371,13.1258803365675,-36.4123223524954,-32.5439715607748,-28.8552233910818,75.1107701556915,-20.2863678934268,-57.5595612560685,38.5745380817021
2.70805626287594,-12.2148659243382,-21.7999797145309,13.1201106224003,-36.5722382313175,-32.5370832777458,-28.8828589204817,75.4173530253045,-20.1841333193743,-56.6188968170702,37.3220125028353
2.86772391856831,-12.2404067601904,-21.8003233083559,13.1109335385387,-36.7284844742333,-32.534838393036,-28.910410631805,75.7282255179005,-20.0702362509767,-55.7402360705407,36.1032907547101
3.02713633823043,-12.2682237168428,-21.7999343461938,13.0983431732612,-36.8791037160595,-32.537294769611,-28.9375029887719,76.0415618083333,-19.9437178900422,-54.9282045701144,34.9241526725313
3.18527367160794,-12.2981683603375,-21.7987650818938,13.082381645911,-37.0220878289628,-32.5444523622415,-28.9637093832059,76.3554419584724,-19.8038418441882,-54.186428521599,33.7895725340409
3.34108206081004,-12.3300246520971,-21.7967829173765,13.0631399299915,-37.1554034786559,-32.5562497356193,-28.9885523494383,76.6678756452898,-19.6501194855891,-53.5175089403517,32.7036642798515
3.49348701986895,-12.3635096516324,-21.7939712829721,13.0407575131388,-37.2770188986175,-32.5725613650213,-29.0115051224968,76.9768270692624,-19.4823295314331,-52.9230297035963,31.6696610046049
3.64140818808856,-12.3982755977508,-21.7903302566817,13.0154208734338,-37.384931394463,-32.5931957240634,-29.0319946828668,77.280240342382,-19.3005311275192,-52.4035944282074,30.6899248602915
3.7837751944884,-12.4339133331652,-21.7858769268411,12.9873607874346,-37.4771950645729,-32.6178941502963,-29.0494063837483,77.5760646447424,-19.1050698915633,-51.9588858573911,29.765982138031
3.91954433200558,-12.4699570088945,-21.7806455003847,12.9568485208473,-37.551948212144,-32.646330471492,-29.0630901997854,77.8622784610563,-18.8965765651195,-51.587741063139,28.8985777314417
4.04771571070797,-12.5058899789426,-21.7746871548849,12.9241909865893,-37.6074399285785,-32.678111373501,-29.0723685723744,78.1369122620368,-18.6759581261547,-51.2882361464153,28.0877433191965
4.16735053974111,-12.5411517729587,-21.7680696273091,12.889724985956,-37.6420553482081,-32.71277749405,-29.076545759627,78.3980690766716,-18.4443814221624,-51.0577750456725,27.3328742449364
4.2775881782327,-12.575146015215,-21.7608765267448,12.8538106757366,-37.6543391084524,-32.7498052350055,-29.0749185329295,78.6439425045498,-18.2032495907885,-50.8931783177534,26.6328109998221
4.37766259555136,-12.6072491424133,-21.7532063530975,12.816824426614,-37.6430165953385,-32.7886092974746,-29.0667880008019,78.872831835961,-17.954171736537,-50.790769113943,25.9859222202566
4.46691789026004,-12.6368197605232,-21.7451711999911,12.7791512554084,-37.6070126088413,-32.8285459584695,-29.0514722880292,79.0831540744034,-17.698926524121,-50.7464548546194,25.3901870355021
4.54482253338106,-12.6632084719689,-21.7368951187725,12.7411770252068,-37.5454671423037,-32.8689171233405,-29.0283197567083,79.2734527845132,-17.43942052779,-50.7558041758568,24.8432753273559
4.6109820232327,-12.6857679988892,-21.7285121225212,12.7032806128493,-37.4577480318278,-32.9089752030813,-28.9967224278595,79.4424038120724,-17.1776423380609,-50.8141195017605,24.3426249454244
4.66514966365433,-12.7038634257349,-21.7201638149129,12.6658262424649,-37.343460291922,-32.9479288779299,-28.9561292483961,79.5888180365059,-16.91561356919,-50.916506058913,23.8855151580217
4.70723520205759,-12.7168823849708,-21.7119966390119,12.6291561768176,-37.2024520105126,-32.9849498162086,-28.9060588482987,79.7116414162423,-16.6553380287273,-51.0579383073779,23.4691356526629
4.73731108531492,-12.7242450129106,-21.7041587555151,12.5935839453413,-37.0348167282685,-33.0191804178209,-28.8461114455837,79.8099526708256,-16.3987504005022,-51.2333246606248,23.0906503007436
4.75561610689205,-12.725413508489,-21.6967965782133,12.559388269379,-36.8408922737079,-33.049742643143,-28.7759795802677,79.8829590092588,-16.1476658501691,-51.4375710687847,22.7472547493466
4.762556225055,-12.7199011357891,-21.6900510156807,12.5268078219541,-36.6212560674784,-33.0757479685122,-28.6954573908457,79.9299903611697,-15.9037319836706,-51.6656436201933,22.4362267781857
4.75870232750422,-12.7072805210665,-21.6840534913293,12.4960369323038,-36.3767169481958,-33.096308477987,-28.6044481856361,79.9504925961338,-15.6683845696123,-51.9126298509441,22.1549683265182
4.74478470208583,-12.6871911065016,-21.6789218375745,12.4672223154993,-36.1083036107133,-33.1105490571426,-28.502970104818,79.9440202272675,-15.4428083730698,-52.1737980108075,21.9010381958524
4.7216839485622,-12.659345635652,-21.674756182372,12.4404608760657,-35.8172497884469,-33.1176205988444,-28.3911597155713,79.9102290884765,-15.2279043380823,-52.4446531737707,21.672174684588
4.69041803881782,-12.6235355593114,-21.6716349660592,12.4157986029781,-35.5049763571706,-33.1167140647391,-28.269273431473,79.8488694507417,-15.0242641976461,-52.7209888434121,21.4663077980639
4.65212521339578,-12.579635265108,-21.669611241517,12.3932305431403,-35.1730705906553,-33.1070751723658,-28.1376866975768,79.7597800016293,-14.8321533839548,-52.9989326093125,21.2815611663326
4.60804240803548,-12.5276050497757,-21.668709419423,12.3727018127473,-34.8232628597018,-33.0880194005493,-27.996890934159,79.6428830540359,-14.6515028615817,-53.2749844641729,21.1162443407547
4.55947895833582,-12.4674927698646,-21.6689226212538,12.3541095818698,-34.4574011348989,-33.0589469309448,-27.8474882847244,79.4981812760238,-14.4819102202152,-53.5460465796522,20.9688366705822
4.50778546208048,-12.399434125139,-21.6702107945125,12.337305947968,-34.0774237272688,-33.0193570785474,-27.6901842670323,79.3257561458629,-14.3226500544698,-53.8094436374909,20.8379644252612
4.45431791611058,-12.323651549412,-21.672499726777,12.3221015992651,-33.6853307753097,-32.968861716639,-27.5257784785166,79.1257682390195,-14.1726933435874,-54.062933189287,20.722373180349
4.40039760983993,-12.2404517063486,-21.675681067727,12.3082701589676,-33.2831550557101,-32.9071971794215,-27.3551535574741,78.8984593517962,-14.0307352428147,-54.3047059387822,20.6208976936901
4.34726775408685,-12.1502216127593,-21.6796134323182,12.2955530958294,-32.8729327511978,-32.8342341339137,-27.1792626458661,78.6441563647644,-13.8952304287254,-54.5333762714835,20.5324315516668
4.2960484237585,-12.0534234387335,-21.6841246155769,12.2836650847714,-32.4566748457309,-32.7499849539356,-26.9991156351231,78.3632766525089,-13.7644349160856,-54.747963768925,20.4558987689607
4.24769202581667,-11.9505880619438,-21.6890149025222,12.2722997022891,-32.0363398286873,-32.6546082019987,-26.81576449993,78.0563347580607,-13.6364530914804,-54.9478668155664,20.3902292997061
4.20294205617848,-11.8423074817036,-21.694061408253,12.26113534426,-31.6138083719385,-32.5484099252681,-26.630288034659,77.723949973473,-13.50928859057,-55.1328297177838,20.334340092144
4.16229823846322,-11.7292262258625,-21.699023336104,12.2498412576643,-31.1908605951211,-32.4318415925357,-26.4437763026169,77.3668544045964,-13.3808975790423,-55.3029049939373,20.287122924659
4.12599110646871,-11.6120319092589,-21.7036479986463,12.2380835819684,-30.7691564560713,-32.3054946319618,-26.2573150910071,76.9859010502451,-13.2492429771089,-55.4584126527548,20.2474398284186
4.09396861481509,-11.491445125039,-21.7076774095564,12.2255313000638,-30.350219698754,-32.1700916653475,-26.0719706373733,76.5820713954394,-13.1123481878058,-55.5998983472212,20.2141264564105
4.06589644606105,-11.3682088685341,-21.710855225917,12.2118620024704,-29.9354256656864,-32.0264746654179,-25.8887748601289,76.1564820066679,-12.9683489444894,-55.7280922680325,20.1860033210976
4.04117244765863,-11.2430777064485,-21.7129338017559,12.1967673720545,-29.5259931430071,-31.8755903805802,-25.7087112908019,75.7103896250497,-12.8155419773079,-55.8438705228264,20.1618944093311
4.01895428980309,-11.1168069109281,-21.7136811054619,12.1799583000326,-29.1229802620056,-31.7184734708324,-25.5327018727871,75.2451942810949,-12.6524293072553,-55.9482205375075,20.1406523064548
3.99819823156285,-10.9901417780059,-21.712887256466,12.1611695479751,-28.7272843392388,-31.5562278745722,-25.3615947639209,74.7624400019005,-12.4777571055442,-56.0422117219708,20.121188632232
3.97770602617106,-10.8638073426694,-21.7103704500481,12.1401638754527,-28.3396454058272,-31.3900069763888,-25.196153260169,74.2638127467504,-12.2905482021303,-56.126972277659,20.1025083179257
3.9561766007441,-10.7384986885733,-21.7059820625693,12.1167355594689,-27.960653061398,-31.2209931697027,-25.0370459459477,73.7511352882133,-12.0901274879842,-56.2036726070543,20.0837460431035
3.93225920937769,-10.6148720298782,-21.6996107616009,12.0907132404065,-27.5907561940548,-31.0503774062013,-24.8848381724859,73.2263588504522,-11.8761396298529,-56.2735153382527,20.0642030069358
3.90460518425431,-10.4935367169503,-21.691185484613,12.0619620402433,-27.2302750375765,-30.8793392987617,-24.7399849673926,72.6915514216931,-11.6485587033304,-56.3377315277481,20.0433821343553
3.8719160491051,-10.3750482881402,-21.6806771941019,12.0303849124181,-26.8794149919803,-30.7090282993494,-24.602825483531,72.1488827704506,-11.407689549717,-56.3975821802455,20.0210198135329
3.8329864631332,-10.2599026581845,-21.6680993641399,11.9959231989159,-26.5382816134278,-30.5405464122732,-24.4735791001463,71.6006063116518,-11.1541608733268,-56.4543638545538,19.9971123281512
3.7867411143788,-10.1485315015248,-21.6535072012388,11.9585563886539,-26.2068961828762,-30.3749328303136,-24.3523432906046,71.0490380852699,-10.8889103159026,-56.509416835509,19.9719352862746
3.73226521034625,-10.0412988574773,-21.6369956492383,11.9183010916913,-25.8852112877877,-30.2131508005526,-24.2390933659325,70.4965332220763,-10.6131619686308,-56.5641341644237,19.9460545575682
3.66882859660242,-9.93849895486213,-21.6186962719992,11.8752092655646,-25.5731258949546,-30.0560769417145,-24.1336841890951,69.945460373803,-10.3283970023916,-56.6199697491428,19.9203275119239
3.59590377991234,-9.84035522733667,-21.5987731475237,11.829365752441,-25.2704994521069,-29.9044931484885,-24.0358539300102,69.3981746733231,-10.0363183035791,-56.6784438265301,19.8958937029308
3.51317826826455,-9.7470204678797,-21.577417941323,11.7808852078653,-24.9771646282731,-29.7590811332061,-23.9452298952637,68.8569898594469,-9.73881018491341,-56.7411442247294,19.874154553013
3.42056169845621,-9.65857805205909,-21.5548443540427,11.7299085226371,-24.6929383846118,-29.6204195735315,-23.8613364202169,68.3241502462344,-9.43789438690898,-56.8097221617302,19.8567420616488
3.31818823281303,-9.57504414508088,-21.5312821572397,11.6765988577046,-24.4176311553349,-29.4889837582578,-23.7836047568229,67.8018032350912,-9.13568368630364,-56.885881704527,19.8454770552004
3.20641469347152,-9.49637079717816,-21.5069710406673,11.6211374267905,-24.1510540091567,-29.3651475533884,-23.7113848310937,67.2919730577473,-8.8343344759794,-56.97136247566,19.8423180011967
3.0858148808378,-9.42244982546671,-21.4821544937623,11.5637191717054,-23.8930237521784,-29.2491874488166,-23.643958683478,66.79653639984,-8.5359996737829,-57.0679157005911,19.8493018915253
2.95717050005688,-9.35311737761146,-21.4570739330645,11.5045484799647,-23.6433660199819,-29.1412883934897,-23.580555347145,66.3172004904742,-8.24278325636826,-57.1772742054606,19.8684791271071
2.82145909634746,-9.28815907297181,-21.4319632666419,11.4438350925824,-23.401916486656,-29.041551085423,-23.5203668666713,65.8554841567453,-7.95669760372421,-57.3011174656485,19.9018446840965
2.6798393711661,-9.22731561963904,-21.407044057616,11.3817903412289,-23.1685203882675,-28.9500003536845,-23.4625651156109,65.4127022389198,-7.67962468845985,-57.4410332412139,19.9512680886789
2.53363420377098,-9.17028881014024,-21.3825214137432,11.318623838168,-22.9430306149337,-28.86659425369,-23.4063190379022,64.9899536476226,-7.41328196133617,-57.5984776907518,20.0184248623327
2.38431161582403,-9.11674780370631,-21.3585806913215,11.2545407199055,-22.7253046667609,-28.7912334956821,-23.3508119164268,64.588113224994,-7.15919358209721,-57.7747361037879,20.1047321140934
2.23346375790181,-9.06633560808876,-21.3353850621889,11.1897395171818,-22.5152007929317,-28.7237708395654,-23.2952582630938,64.2078274530594,-6.91866743345444,-57.9708864996288,20.2112908432202
2.08278371918617,-9.01867567830562,-21.3130739546981,11.1244106912581,-22.3125736397579,-28.6640201173345,-23.238919928922,63.8495139396135,-6.69277814652457,-58.1877682753221,20.3388372706172
1.93403950192615,-8.97337855296921,-21.2917623451855,11.0587358411674,-22.1172697233166,-28.611764586496,-23.1811210496099,63.5133645091123,-6.48235616733888,-58.4259578351939,20.4877051481086
1.7890437881974,-8.93004845081375,-21.2715408469002,10.9928875508365,-21.9291230172652,-28.5667643725642,-23.1212614714502,63.1993516369269,-6.2879827140625,-58.6857527170041,20.6578005233718
1.64961710832502,-8.88828975076047,-21.2524765193447,10.9270298108757,-21.747950909483,-28.5287628231722,-23.0588283431601,62.9072378925553,-6.10999031937676,-58.9671651850608,20.8485898960541
1.517540756375,-8.84771327861236,-21.2346143027378,10.8613189194761,-21.5735507359203,-28.497491666722,-22.9934056097757,62.6365880028148,-5.94846852611172,-59.2699256391973,21.0591021206262
1.39449463276664,-8.80794232271638,-21.2179789697177,10.7959047420969,-21.4056970504079,-28.4726749401441,-22.9246812032984,62.3867831104873,-5.80327420837317,-59.5934955437672,21.2879438259419
1.28197503701174,-8.76861830025113,-21.2025774790623,10.7309321919668,-21.2441397390042,-28.4540317184869,-22.8524517890492,62.1570367871944,-5.67404592457404,-59.9370889650999,21.5333275605665
1.18118999404621,-8.72940599585378,-21.1884016135737,10.666542783938,-21.088603039979,-28.441277739392,-22.7766249942561,61.9464123602947,-5.56022167055896,-60.2997012673255,21.7931113649915
1.09293716992995,-8.68999829578994,-21.1754307857528,10.6028761134804,-20.9387854880593,-28.4341260647554,-22.6972191138192,61.7538411303038,-5.46105938658927,-60.6801430960187,22.0648480427256
1.01748278627499,-8.65012034445385,-21.1636348999076,10.5400711206948,-20.7943607654604,-28.4322869577884,-22.6143603551607,61.5781410849868,-5.37565957664268,-61.0770775071813,22.3458420739893
0.954475641244284,-8.60953305623003,-21.1529771673488,10.4782670157604,-20.6549794129731,-28.4354671752187,-22.5282777475441,61.4180357556356,-5.30298941724905,-61.4890579928093,22.6332119046163
0.90293821728449,-8.56803592502637,-21.1434167818252,10.4176037663832,-20.5202713318293,-28.4433688814421,-22.4392958995355,61.2721729067412,-5.24190776130101,-61.9145652156671,22.9239552571256
0.861364805369311,-8.52546908623856,-21.1349113748326,10.3582220783268,-20.3898489907054,-28.4556883850079,-22.3478258399862,61.1391427990669,-5.19119047631357,-62.3520404817759,23.2150151498444
0.827923118380649,-8.48171460137781,-21.1274191843539,10.3002628353118,-20.2633112413343,-28.4721148796745,-22.2543542218579,61.0174958152648,-5.14955559437897,-62.7999143232963,23.5033444630082
0.800717930610638,-8.43669695363815,-21.1209008853837,10.243866002392,-20.1402476400099,-28.4923293450465,-22.1594312033162,60.9057592845702,-5.11568779213847,-63.2566290012228,23.7859671391516
0.778056654057586,-8.39038276256476,-21.1153210456515,10.1891690349384,-20.0202431700131,-28.5160037286339,-22.0636573458028,60.8024533874239,-5.08826176441111,-63.7206542256272,24.0600344237729
0.758666193309424,-8.34277974673122,-21.1106491847042,10.1363048709587,-19.9028832608592,-28.5428004955313,-21.9676698834099,60.7061060615226,-5.06596410633201,-64.1904958894056,24.3228749127343
0.741835301140122,-8.29393498377356,-21.1068604284348,10.0853996150058,-19.7877590034394,-28.5723725972287,-21.8721287212668,60.6152668677841,-5.04751337750739,-64.6646980815518,24.5720375464866
0.727477718341816,-8.24393253601509,-21.1039357638987,10.0365700450037,-19.6744724647761,-28.6043638803394,-21.7777025126605,60.5285198084001,-5.03167808843209,-65.1418390575848,24.8053270523914
0.716118560807774,-8.19289052603247,-21.1018619106076,9.98992108714429,-19.5626420115127,-28.6384099315459,-21.6850551457168,60.4444951200519,-5.01729242355673,-65.6205221777589,25.0208316650402
0.708802289021754,-8.14095775882921,-21.1006308343954,9.94554340763652,-19.4519075568765,-28.6741393380586,-21.594832941781,60.361880093903,-5.00326959487928,-66.0993630685752,25.216943236954
0.706915929444526,-8.08830999508297,-21.1002389384774,9.90351126362403,-19.3419356514455,-28.7111753334609,-21.5076528309965,60.2794290002906,-4.98861280159648,-66.5769744189749,25.392370081081
0.711929460601718,-8.03514598289126,-21.1006859736292,9.86388074013818,-19.2324243436031,-28.7491377960145,-21.4240917283386,60.1959722198392,-4.97242385141732,-67.0519498941455,25.5461430599655
0.725084179651214,-7.98168335366059,-21.1019737157328,9.82668847738712,-19.1231077412064,-28.7876455685608,-21.3446772881161,60.1104247032217,-4.95390957366981,-67.5228486445178,25.6776155563386
