Finger Velocity,Scap_X,Scap_Y,Scap_Z,Shoulder horiz abd-adduction,Shoulder flexion-extension,Shoulder internal-external rotation,elbow flexion-extension,forearm pronation-supination,wrist flexion-extension,wrist radial-ulnar deviation
0.803091455322406,-14.5726723840912,-23.41933528478,10.9984313998164,-28.7770566355139,-38.3839400654717,-25.9245567315806,79.0976715584227,-18.4906526060618,-47.7920605044434,32.7206622536396
0.959441792003851,-14.5577851739456,-23.4402925167793,11.0041502735887,-28.7768108988006,-38.3900545186208,-25.9276678019781,79.0828352907252,-18.3979450789292,-47.2372718440533,32.1810682715866
1.12752791734589,-14.5435495481155,-23.46026128035,11.0083096203277,-28.7773806704887,-38.4007746920958,-25.9314442383258,79.0678017821504,-18.301228018208,-46.6875407309218,31.6354440907385
1.30662472921484,-14.5302486653541,-23.4790480680751,11.0106272552932,-28.7787523468935,-38.4163191572297,-25.9357950550453,79.0528537826945,-18.2003448486778,-46.1496773707872,31.0894250033818
1.49589789153278,-14.5181792360846,-23.4964744451772,11.0108197863532,-28.7808802517052,-38.4368451343766,-25.9406176861904,79.0383037699662,-18.0950652524339,-45.629940797486,30.5481998616916
1.69439317393435,-14.5076473382234,-23.5123797747816,11.0086066606562,-28.7836784591467,-38.4624420977651,-25.9457999553844,79.0244859977892,-17.9850820730926,-45.1338378077731,30.0163255423391
1.90103394217285,-14.4989636920408,-23.5266235515129,11.0037144337054,-28.7870125351234,-38.4931258982066,-25.9512220347146,79.0117468184321,-17.8700110994592,-44.6659825018979,29.4975993163927
2.11462398386501,-14.4924384610186,-23.5390873031995,10.9958812791827,-28.790691527341,-38.5288333831277,-25.9567582326401,79.0004333460425,-17.7493937785717,-44.2300210198951,28.994993748298
2.33385423489958,-14.4883756704778,-23.5496760283253,10.984861741331,-28.7944605589627,-38.5694174971104,-25.9622784413659,78.9908805783951,-17.6227027611645,-43.8286185468654,28.5106511211735
2.55731261176362,-14.4870673603243,-23.5583191501893,10.970431696664,-28.7979943751236,-38.6146428652542,-25.9676490532417,78.9833971515735,-17.4893500634046,-43.4634998223828,28.0459283798126
2.78349646114484,-14.4887876100314,-23.5649709851858,10.9523934450632,-28.8008921571446,-38.6641818962956,-25.9727331413059,78.9782499640388,-17.3486975414675,-43.1355307779578,27.601479904318
3.01082728537649,-14.4937865916353,-23.5696107403696,10.9305808009558,-28.8026738637207,-38.7176114843552,-25.9773897037366,78.9756479679203,-17.200069313899,-42.8448275533459,27.1773641838212
3.23766747026359,-14.5022848198424,-23.5722420727169,10.9048640115902,-28.8027782943131,-38.77441042624,-25.9814718011056,78.975725482578,-17.0427657210538,-42.5908796390511,26.7731612472917
3.46233876879984,-14.514467776929,-23.5728922571009,10.875154299125,-28.8005630080506,-38.8339576977458,-25.9848234737387,78.978525436252,-16.8760783749521,-42.3726756405226,26.3880898149715
3.68314229950972,-14.5304810921833,-23.5716110199934,10.8414078129855,-28.7953061788153,-38.8955317445655,-25.9872754187697,78.9839829850112,-16.6993058241805,-42.18882249233,26.0211158258969
3.89837981178348,-14.5504264489717,-23.5684691001791,10.8036287907802,-28.7862104246661,-38.958310943166,-25.9886395303209,78.9919099921966,-16.5117693368519,-42.0376513778547,25.6710467141655
4.10637595820113,-14.5743583760765,-23.563556595715,10.7618717555096,-28.7724086088561,-39.0213753815773,-25.9887025491234,79.0019808701707,-16.3128282938009,-41.9173059185723,25.3366082188294
4.30550129866228,-14.602282054491,-23.5569811461309,10.7162426158847,-28.7529715591158,-39.0837101091932,-25.9872192077482,79.0137202816705,-16.1018946926847,-41.8258103817242,25.0165025222727
4.49419574502616,-14.6341522383074,-23.5488659781653,10.666898578028,-28.7269175887334,-39.1442100133103,-25.9839053672,79.0264931671226,-15.8784462999253,-41.7611177300673,24.7094481728096
4.67099213900868,-14.6698733503854,-23.5393478138585,10.6140468162878,-28.6932236393218,-39.201686490304,-25.978431699685,79.0394975122849,-15.6420380504455,-41.7211391805623,24.4142036017758
4.83453964084111,-14.7093007704993,-23.5285746090396,10.5579418886221,-28.6508378236634,-39.2548760715517,-25.9704184798677,79.0517602088635,-15.392311372929,-41.7037583438004,24.1295770610962
4.98362659181927,-14.7522432851679,-23.5167030674752,10.4988819226691,-28.5986931440857,-39.3024511223011,-25.9594320172129,79.0621362991104,-15.1290012019065,-41.7068338725896,23.8544264386199
5.1172025001413,-14.7984666150533,-23.5038958674253,10.4372036465378,-28.5357221932549,-39.3430326563129,-25.9449832096773,79.0693118374845,-14.8519405317912,-41.7281949053827,23.5876526421678
5.23439878574626,-14.8476978812508,-23.4903185443783,10.3732763917624,-28.4608726895147,-39.3752052147197,-25.9265286307254,79.0718105473874,-14.5610624805674,-41.7656335640738,23.3281901051212
5.33454790522185,-14.8996308226366,-23.4761359942849,10.3074952462512,-28.3731237350587,-39.397533659094,-25.9034744763443,79.0680043957392,-14.2563999586926,-41.8168984590279,23.0749975398775
5.41720046081976,-14.9539315397891,-23.4615085931812,10.2402735720627,-28.2715026956728,-39.4085816338277,-25.8751835895193,79.0561281479578,-13.9380831647548,-41.8796926401905,22.8270514734544
5.48213987636048,-15.0102445208927,-23.4465879698313,10.1720351203349,-28.1551025769998,-39.4069313644377,-25.8409856367667,79.0342978951719,-13.6063352341958,-41.9516787608307,22.5833444531406
5.52939419515296,-15.0681987030563,-23.4315125152971,10.1032059730835,-28.023099709829,-39.3912043838638,-25.8001903267337,79.0005334609546,-13.2614664426617,-42.0304934316983,22.3428891842047
5.5592445187117,-15.1274133394305,-23.4164027607805,10.0342065215091,-27.8747714519699,-39.3600827365778,-25.7521033362054,78.9527844971423,-12.9038674187641,-42.1137718307063,22.1047292411307
5.57222955806793,-15.1875034759114,-23.4013567924115,9.96544365884112,-27.7095134718771,-39.3123302185128,-25.6960443649794,78.8889599698368,-12.534001863421,-42.199182450912,21.8679561975583
5.56914571100025,-15.2480848837413,-23.3864458910017,9.89730333286033,-27.5268560243035,-39.2468132649289,-25.6313665160233,78.8069606182918,-12.1523993003766,-42.2844702574447,21.6317318478057
5.55104201010982,-15.3087783383968,-23.3717105864406,9.83014357940298,-27.3264785000031,-39.1625211678797,-25.5574760323363,78.7047138411644,-11.7596483733221,-42.3675047120164,21.3953128282764
5.5192092142023,-15.3692131774738,-23.3571573062271,9.76428814567352,-27.1082214681174,-39.0585853565661,-25.4738513515462,78.5802103322326,-11.3563911358226,-42.4463278808981,21.1580740895276
5.47516225168289,-15.4290301103827,-23.3427557804477,9.70002080418586,-26.8720954600544,-38.9342974909325,-25.3800604834989,78.431541666154,-10.9433186408341,-42.5191979087834,20.9195279810514
5.42061519239766,-15.4878832896423,-23.3284373432111,9.6375804468859,-26.6182858793144,-38.7891261007178,-25.2757758661303,78.256937941716,-10.5211679386177,-42.5846244714819,20.6793371085598
5.35744795928675,-15.5454416854439,-23.3140942439297,9.5771570342378,-26.3471536490501,-38.6227314562502,-25.1607860716075,78.0548045341744,-10.0907203700608,-42.6413946153429,20.4373208212741
5.2876641433856,-15.6013898307067,-23.2995800522596,9.5188884610343,-26.0592314921652,-38.4349782961732,-25.0350039708151,77.8237569889312,-9.65280084123483,-42.6885888629014,20.1934564146244
5.21333961681802,-15.6554280243388,-23.2847112098015,9.46285839170931,-25.7552160343048,-38.2259459788921,-24.8984711861118,77.562653104336,-9.20827761937466,-42.7255883443052,19.9478766363956
5.13656221190653,-15.7072720991772,-23.2692697510435,9.4090951096178,-25.4359561876476,-37.9959355900536,-24.7513588535455,77.2706213031733,-8.75806211798711,-42.7520741113049,19.7008650165711
5.05936359528402,-15.756652879302,-23.2530071852111,9.35757141313646,-25.102438476769,-37.7454735467927,-24.5939648728934,76.9470844784358,-8.30310814261891,-42.7680198902438,19.4528501667532
4.98364560915797,-15.8033154654183,-23.235649498186,9.30820557546517,-24.7557700827677,-37.4753112997035,-24.4267079511818,76.591778610902,-7.84441013888943,-42.7736794762251,19.2043997224727
4.91110468683487,-15.8470184924336,-23.2169031979664,9.26086336479364,-24.397160407615,-37.1864208403388,-24.2501188474788,76.2047655858812,-7.38300009724101,-42.7695698449379,18.9562141497558
4.84315927246824,-15.8875335007164,-23.1964622879956,9.21536109769768,-24.0279019179948,-36.8799858595607,-24.0648293033284,75.7864397834965,-6.91994289568067,-42.7564508873657,18.7091202573867
4.78088617417076,-15.9246445557017,-23.1740160117742,9.171469674157,-23.6493509433833,-36.5573885521955,-23.8715591898619,75.3375281863728,-6.45632998334486,-42.735302453662,18.4640639595088
4.72497209413334,-15.9581482417263,-23.1492571726537,9.1289195216115,-23.2629089994078,-36.2201922128027,-23.6711024150211,74.8590839459656,-5.99327142044204,-42.7072991290601,18.222101613074
4.67568591268383,-15.9878541438063,-23.1218907980872,9.08740635975794,-22.8700051009785,-35.8701199091802,-23.464312110231,74.3524735715672,-5.53188639818146,-42.6737828996235,17.9843891268944
4.63287556028594,-16.0135859117627,-23.0916428904097,9.04659768483805,-22.472079426088,-35.5090296532586,-23.2520855571229,73.8193581389833,-5.07329246735049,-42.6362336903573,17.7521680610358
4.59599069467753,-16.0351829713225,-23.0582689874555,9.0061398568627,-22.0705685858496,-35.1388866140491,-23.0353492305665,73.2616691350541,-4.61859380095066,-42.5962377574546,17.5267481545871
4.56412939857675,-16.0525029057886,-23.0215622468782,8.96566565210265,-21.6668926450913,-34.7617330319091,-22.8150442401629,72.6815797381078,-4.16886889411306,-42.5554540897236,17.3094861027232
4.53610436456524,-16.06542448141,-22.9813607713908,8.92480211886029,-21.2624439258436,-34.3796565887895,-22.5921123656144,72.0814724702129,-3.72515815408393,-42.5155792321081,17.1017608451579
4.5105221120166,-16.0738512329994,-22.9375539133281,8.88317855526853,-20.8585775252778,-33.9947580536602,-22.3674828145736,71.4639042374429,-3.28845185109064,-42.4783111934193,16.9049460382419
4.48586800824211,-16.0777154672789,-22.8900873359706,8.84043442143339,-20.4566034004585,-33.6091190507467,-22.1420597924154,70.8315697943865,-2.85967889008358,-42.4453133102904,16.7203807367549
4.46059023516244,-16.0769824838985,-22.8389666583946,8.79622700601564,-20.0577798173254,-33.2247707958079,-21.9167109669275,70.1872646282279,-2.43969683063187,-42.4181791125217,16.5493396021952
4.43317707326471,-16.0716547644906,-22.7842595629109,8.75023868348957,-19.6633079243574,-32.8436646184543,-21.6922569365221,69.5338481613319,-2.02928353450005,-42.398399348986,16.3930041414987
4.40222355322264,-16.0617758483226,-22.726096298598,8.70218361491553,-19.2743271843813,-32.4676450329384,-21.4694618575354,68.8742080295315,-1.62913075919009,-42.3873323383168,16.2524365035629
4.36648525486034,-16.0474336066948,-22.6646685714586,8.65181375947768,-18.8919113827772,-32.0984260274482,-21.2490254366711,68.2112260208328,-1.23983993670174,-42.3861786620353,16.1285571876039
4.32491852882195,-16.0287626461248,-22.6002268670739,8.59892408000851,-18.5170649401978,-31.737571111529,-21.0315765302417,67.5477460759429,-0.861920273617419,-42.395960912491,16.0221276651665
4.27670753684381,-16.0059456058724,-22.5330762993357,8.54335684598307,-18.1507193029462,-31.3864775037531,-20.8176685973503,66.8865445808375,-0.495789179276985,-42.4175087939259,15.9337384492336
4.22127923124128,-15.9792131640178,-22.4635711158312,8.48500495931338,-17.793729258494,-31.0463646747532,-20.6077772218307,66.2303030426309,-0.141774881731378,-42.4514494588848,15.863802645994
4.1583077785394,-15.948842626583,-22.3921080161501,8.42381424854079,-17.446869112314,-30.7182672996963,-20.402299852757,65.5815831457588,0.199879056902753,-42.4982026593679,15.8125545835373
4.08771006360206,-15.9151550433694,-22.3191184555667,8.35978469626686,-17.1108287554976,-30.4030325257132,-20.2015578285587,64.9428041409371,0.529007748188404,-42.5579801578651,15.7800527868928
4.00963387749858,-15.8785108673783,-22.2450601197496,8.29297058424506,-16.7862097487712,-30.1013213203575,-20.0058006510022,64.3162225249611,0.845518041146265,-42.6307888469296,15.7661863777298
3.92444026736914,-15.839304246662,-22.1704077757725,8.22347956060699,-16.4735216428304,-29.8136135319475,-19.8152123575042,63.7039140186246,1.14938124999733,-42.7164370891698,15.7706839060517
3.83268136161999,-15.7979561041211,-22.0956437352573,8.15147065543517,-16.1731788255587,-29.5402161697123,-19.6299197067359,63.1077579223624,1.44062617589583,-42.8145438562388,15.7931236574194
3.735074811664,-15.7549062189029,-22.0212482005267,8.07715129647205,-15.8854982016122,-29.2812743253592,-19.4500017714402,62.5294239937339,1.71933300918434,-42.9245503155841,15.8329446231857
3.6324758302656,-15.7106045698755,-21.9476897906673,8.00077340468243,-15.6106979592505,-29.036784128972,-19.2755004607479,61.970362024766,1.9856285960014,-43.0457336083835,15.8894575629419
3.52584766484357,-15.6655022359562,-21.8754165516431,7.92262867317883,-15.3488975900022,-28.8066071576381,-19.1064314828087,61.4317942984461,2.2396834112373,-43.1772226712071,15.9618558841862
3.4162312249102,-15.6200421710223,-21.8048477431551,7.84304314665831,-15.1001192339895,-28.590485771569,-18.9427952829153,60.9147110821565,2.48171041078338,-43.3180160399957,16.0492263499406
3.30471448694231,-15.5746501831569,-21.7363666697801,7.76237122271158,-14.8642903442482,-28.3880589175945,-18.7845875207597,60.419869278954,2.71196573775681,-43.4670016135123,16.1505598458775
3.19240222776511,-15.5297264452033,-21.6703147870828,7.68098919859508,-14.6412476022937,-28.1988780042888,-18.6318086728124,59.9477943068064,2.93075103328913,-43.6229783431501,16.2647625613544
3.08038658982036,-15.4856378395955,-21.6069872624234,7.59928849537195,-14.430741980845,-28.0224225158164,-18.4844723725062,59.4987852116414,3.13841687510055,-43.7846797545386,16.3906679484086
2.96971895963357,-15.4427113932871,-21.5466301027596,7.51766870742369,-14.2324448397102,-27.8581150943471,-18.3426121430532,59.0729229467425,3.33536666920484,-43.9507990804676,16.5270497193732
2.86138364475327,-15.4012289953776,-21.4894388809615,7.43653064300259,-14.0459549463315,-27.70533588432,-18.206286237135,58.6700816787737,3.52206018166034,-44.1200155871924,16.672635946217
2.75627386206441,-15.361423522572,-21.4355590066885,7.35626953227629,-13.8708063183613,-27.5634359942844,-18.075580372666,58.2899429208713,3.69901584382495,-44.2910214281129,16.8261240773525
2.6551705942327,-15.3234764348543,-21.3850874069742,7.27726857852106,-13.7064767854608,-27.4317499900509,-17.9506082429987,57.9320122499712,3.86681101516831,-44.4625481150255,16.9861964574276
2.55872491642726,-15.2875168487904,-21.3380754128891,7.19989301580539,-13.5523971629835,-27.3096073809735,-17.8315097784441,57.5956383317506,4.02607954438044,-44.6333915317906,17.1515357896093
2.46744441975178,-15.2536220483654,-21.2945326012827,7.12448481555271,-13.4079609230792,-27.1963430893914,-17.7184472353712,57.2800339383126,4.17750621108365,-44.8024343907351,17.3208399578605
2.38168433249509,-15.2218193522219,-21.2544313240759,7.05135815831922,-13.2725342395341,-27.0913068909861,-17.6115992824084,56.9842985904803,4.32181792026658,-44.9686651599131,17.4928357267169
2.30164383695671,-15.1920892211796,-21.217711669734,6.98079575732434,-13.1454662737222,-26.9938717850664,-17.5111533380185,56.7074423883322,4.45977181970572,-45.1311927155214,17.6662910152476
2.22736787917584,-15.1643694610743,-21.1842866250299,6.91304608506088,-13.0260995633601,-26.903441222513,-17.417296489924,56.4484105202875,4.59214078180466,-45.289256229375,17.8400256381948
2.1587544720954,-15.1385603530349,-21.1540472239182,6.84832151329536,-12.9137803714798,-26.8194551099062,-17.3302053938668,56.2061078763393,4.71969690862692,-45.442230063199,18.0129205725692
2.09556712694414,-15.1145305252631,-21.1268674847315,6.78679733518746,-12.8078688435299,-26.7413945263946,-17.2500356043168,55.979423147278,4.84319386486241,-45.5896237125022,18.1839259200702
2.03745166608353,-15.0921233658734,-21.1026089576037,6.72861160414789,-12.707748801498,-26.6687851238864,-17.1769108286252,55.7672517779498,4.96334890977508,-45.7310771067638,18.3520677876658
1.98395634107542,-15.0711637656485,-21.0811247379841,6.6738657015284,-12.6128369768863,-26.6011992176489,-17.1109126140135,55.5685171627271,5.08082548958566,-45.8663518094802,18.5164543027337
1.93455396603059,-15.0514649747724,-21.062262849998,6.6226255326998,-12.5225914518194,-26.5382566045404,-17.0520709700479,55.3821895217439,5.19621718182176,-45.9953188618197,18.6762809261572
1.8886647184899,-15.0328353610965,-21.0458689622728,6.57492324484937,-12.4365190403967,-26.4796241672303,-17.0003563958778,55.2073019671042,5.31003367251948,-46.1179441540679,18.8308351425383
1.84567836231314,-15.0150848700682,-21.0317884606199,6.53075935719249,-12.354181306978,-26.4250143385099,-16.9556737213108,55.0429633514692,5.42268931239543,-46.2342722624198,18.9795005102815
1.80497487761845,-14.9980310066358,-21.0198679529486,6.49010519390102,-12.2751989049146,-26.3741825167012,-16.9178580855839,54.8883675898802,5.53449465306616,-46.3444096552019,19.121759964787
1.76594278605533,-14.9815041836846,-21.009956309944,6.45290551202888,-12.1992539563545,-26.3269235445775,-16.886673271584,54.7427992689218,5.64565122228793,-46.4485080678443,19.2571981985789
1.72799477386778,-14.9653523064195,-21.0019053485354,6.41908122279119,-12.1260902934677,-26.2830673878213,-16.8618124934663,54.6056355075009,5.75624966888702,-46.5467486820505,19.3855029028918
1.69058048911496,-14.9494444877349,-20.9955702515569,6.38853211683455,-12.0555115260149,-26.242474170367,-16.8429016122903,54.476344197483,5.86627129728871,-46.6393275509212,19.5064646569517
1.65319659239909,-14.9336738196674,-20.9908097952318,6.36113952331197,-11.9873770551464,-26.2050287405531,-16.8295046383068,54.3544789098463,5.97559291221234,-46.7264425510461,19.6199753005018
1.61539426421921,-14.9179591626134,-20.9874864324217,6.33676885678794,-11.9215962905227,-26.1706349530622,-16.821131277578,54.2396708860452,6.08399479574062,-46.8082820713969,19.7260247167745
1.57678442626256,-14.9022459532841,-20.9854662591451,6.31527203027662,-11.8581214334208,-26.1392098554842,-16.8172461971611,54.1316186335771,6.19117154057513,-46.8850156514884,19.8246960665952
1.53704093867076,-14.8865060672187,-20.9846188802028,6.2964897314462,-11.7969392573167,-26.1106779619947,-16.8172796179298,54.0300757039195,6.29674537838711,-46.9567867732093,19.9161596183878
1.49590201378642,-14.8707367982518,-20.9848171896953,6.2802535701156,-11.7380623478994,-26.0849657797663,-16.8206388011953,53.934837252439,6.40028158320677,-47.0237079300109,20.0006653873456
1.45317005993199,-14.8549590371996,-20.985937090346,6.26638811042692,-11.6815202579369,-26.0619967320685,-16.8267199786931,53.8457259709482,6.5013054913162,-47.085857963997,20.0785348232727
1.4087101518469,-14.839214748511,-20.9878571839425,6.25471280251401,-11.6273509940163,-26.0416866042038,-16.8349202827871,53.7625779522842,6.59932064365697,-47.1432815385227,20.1501517822165
1.36244732665857,-14.8235638586394,-20.9904584681679,6.24504382648881,-11.5755931900209,-26.0239396287234,-16.8446492575685,53.685229001207,6.69382751319844,-47.1959905484796,20.2159530041536
1.31436292902643,-14.8080806837934,-20.9936240728551,6.23719585620388,-11.5262792445847,-26.008645321369,-16.8553395671076,53.6135018555322,6.78434223168335,-47.2439672841907,20.2764183231207
1.26449027508355,-14.7928500371344,-20.997239065122,6.23098374249544,-11.4794296134515,-25.9956761709427,-16.8664565636281,53.5471947296583,6.87041469194778,-47.2871692525001,20.3320608685464
1.21290996745628,-14.7779631650616,-21.0011903511511,6.22622410723323,-11.4350483587688,-25.9848862675304,-16.8775064349847,53.48607153757,6.95164538942719,-47.325535668469,20.3834175572055
