Finger Velocity,Scap_X,Scap_Y,Scap_Z,Shoulder horiz abd-adduction,Shoulder flexion-extension,Shoulder internal-external rotation,elbow flexion-extension,forearm pronation-supination,wrist flexion-extension,wrist radial-ulnar deviation
0.524964214581369,-13.9220544059122,-21.736633136261,11.0673832163173,-30.617771928647,-40.3358104065683,-28.9031841259256,81.9572722547165,-19.0332601514463,-51.0862570579016,30.5072311298708
0.625677190729612,-13.9368901024825,-21.7875845191469,11.0673777998627,-30.551376849917,-40.2714658098262,-28.8812072450122,82.034730646022,-18.990134985809,-49.6394973197922,29.0295729950991
0.736617737088158,-13.952168918054,-21.8413049539314,11.0667148661079,-30.4741295451711,-40.2034592505808,-28.8522304600698,82.1112614337285,-18.9516286181621,-48.1153578131657,27.4655670676186
0.857832056473373,-13.96771636769,-21.8971774159475,11.0651072757674,-30.3853654897816,-40.1319813262547,-28.815626880321,82.1858926081554,-18.9177982027363,-46.5285358345969,25.8293133488994
0.98939250304909,-13.9833307220783,-21.9545292722599,11.0622524693838,-30.2844674293264,-40.0572224033226,-28.7707841958417,82.2576353763481,-18.888587570703,-44.8969429980686,24.138297550588
1.13137633876107,-13.9987839231083,-22.0126456009193,11.0578370038285,-30.1708689768327,-39.9793605917623,-28.7171108671089,82.3254972379377,-18.8638295619363,-43.2411267918956,22.4128352996062
1.28385132097573,-14.0138229694998,-22.0707841755202,11.0515416322453,-30.0440572325893,-39.8985492799243,-28.6540426172012,82.388495389618,-18.8432515919819,-41.5833836669184,20.6752037164509
1.44686495145893,-14.0281717812996,-22.1281916339291,11.0430467479062,-29.9035745617664,-39.8149047858382,-28.5810492269438,82.4456703141026,-18.826484038982,-39.9466268652289,18.9485228245494
1.62043561842852,-14.0415335564739,-22.1841202892178,11.0320379875377,-29.7490196848833,-39.7284946884765,-28.497641578036,82.4960993589569,-18.8130709073035,-38.353120531769,17.2554977119768
1.80454466122442,-14.0535936315127,-22.2378450046263,11.0182117815895,-29.5800482516791,-39.6393273723505,-28.4033788249378,82.5389100545307,-18.802482155735,-36.8232213484562,15.6171622396564
1.99912885583009,-14.0640228500234,-22.2886795480447,11.001280652459,-29.3963730776377,-39.5473432548759,-28.2978755139545,82.5732928705267,-18.7941270744874,-35.3742707196912,14.0517670838872
2.20407310677407,-14.0724814281637,-22.3359918654628,10.9809780976368,-29.1977642157717,-39.4524080801537,-28.180808422442,82.5985130741359,-18.7873681523284,-34.0197537645297,12.5739283323009
2.41920331419172,-14.0786232847756,-22.3792177598978,10.9570629465831,-28.9840490105987,-39.3543085687268,-28.0519228756611,82.6139213340724,-18.7815349718246,-32.7687942485647,11.1941059155788
2.64427950436122,-14.0821007806594,-22.4178725185509,10.9293231351813,-28.7551122454218,-39.2527506220547,-27.9110383184917,82.6189627209774,-18.7759377774087,-31.6260006208498,9.91842735512318
2.87898938904303,-14.0825697877147,-22.4515600914632,10.8975788894681,-28.5108964600457,-39.1473601943435,-27.758052965614,82.6131837899014,-18.7698804579867,-30.5916308901663,8.74882503671044
3.12294256490672,-14.0796949838344,-22.4799794996095,10.8616853474163,-28.2514024855852,-39.0376868557823,-27.5929474095449,82.5962374897379,-18.7626727673338,-29.6620119057927,7.68342322811397
3.37566558585418,-14.0731552427557,-22.5029282483812,10.8215346726472,-27.9766902091421,-38.9232099764242,-27.4157871147824,82.5678857142631,-18.7536416691573,-28.8301340547852,6.71709670653376
3.6365981425117,-14.0626489622708,-22.5203026405428,10.7770577255786,-27.686879542223,-38.8033473627516,-27.2267237591954,82.5279993786818,-18.7421417348901,-28.0863427471048,5.84212342353435
3.90509056798374,-14.0478991543275,-22.5320950112208,10.7282253570665,-27.382151532876,-38.6774660841313,-27.0259953981014,82.4765559728675,-18.7275645400851,-27.4190583723333,5.04886411008749
4.18040286023514,-14.0286581105146,-22.5383880391227,10.675049382377,-27.0627495445847,-38.5448951363554,-26.8139254232772,82.4136346140647,-18.7093470068357,-26.8154717415896,4.32641714070486
4.46170537222434,-14.0047114574265,-22.5393464190869,10.6175832835882,-26.7289804248822,-38.4049395076007,-26.5909202711015,82.3394087026745,-18.6869786359432,-26.262178424546,3.66321335875505
4.74808127415777,-13.9758814280817,-22.535206305477,10.555922674986,-26.3812155891559,-38.2568951441593,-26.3574658058306,82.2541363700866,-18.66000756903,-25.7457301894119,3.04753023782444
5.03853084091347,-13.9420291974735,-22.5262630419624,10.4902055430215,-26.0198919354066,-38.100064266473,-26.1141222749553,82.1581489835075,-18.6280454132938,-25.2530937861841,2.46791655665749
5.33197756457258,-13.9030561620664,-22.5128577660314,10.4206122356899,-25.6455124840613,-37.9337704680669,-25.8615177190266,82.0518380283653,-18.5907707444594,-24.7720166637227,1.91352781588513
5.62727603962874,-13.8589040840175,-22.4953635091655,10.3473651285416,-25.2586466164964,-37.7573730448653,-25.6003397343426,81.9356407247175,-18.5479311797285,-24.2913063414005,1.37437944078367
5.9232215190213,-13.809554070218,-22.4741714112689,10.2707278466078,-24.8599297756057,-37.5702800467687,-25.3313255411165,81.8100247558786,-18.4993438931071,-23.8010351450045,0.841529536486875
6.21856099448188,-13.7550244118719,-22.4496776384162,10.1910038872105,-24.4500624880947,-37.3719596107393,-25.0552503977872,81.6754724963122,-18.4448944421047,-23.2926845505472,0.307205326880425
6.51200561621627,-13.6953673688904,-22.4222715364752,10.1085344784744,-24.0298085655859,-37.161949221204,-24.772914513552,81.5324651197233,-18.3845337969144,-22.7592433215938,-0.23511270709089
6.80224423567439,-13.6306650417552,-22.3923254646264,10.0236955261992,-23.5999923425612,-36.9398626483617,-24.4851287374754,81.3814669482701,-18.3182735176471,-22.1952714650951,-0.790637106913337
7.08795783170426,-13.5610245295948,-22.3601866284343,9.93689354515798,-23.1614948204613,-36.7053944381253,-24.1926994352276,81.222910372487,-18.2461791134142,-21.5969386740506,-1.36324152770918
7.36783456497637,-13.4865726230324,-22.3261710758891,9.84856053197062,-22.7152486094782,-36.4583219678251,-23.8964130834602,81.0571816294994,-18.1683617328822,-20.9620421602357,-1.95544567606743
7.64058519809149,-13.4074503147626,-22.29055985221,9.75914780265452,-22.2622315846837,-36.1985052273246,-23.5970211825617,80.8846076746891,-18.0849684654633,-20.2900051130308,-2.56841563543456
7.90495861881368,-13.3238074191344,-22.2535971653267,9.66911887561158,-21.8034591953504,-35.9258846068962,-23.295226084624,80.7054443231592,-17.9961716548153,-19.5818538190793,-3.20198116095722
8.15975721068284,-13.2357975715233,-22.2154903205031,9.57894152522227,-21.3399753931187,-35.6404770419656,-22.9916682618222,80.5198657798471,-17.9021577205644,-18.8401690206112,-3.85467387214445
8.40385182787975,-13.143573837474,-22.1764111397053,9.4890791683525,-20.8728421909043,-35.3423708736118,-22.6869154353815,80.3279556281167,-17.8031160389671,-18.0690055622066,-4.52379176794092
8.63619614844418,-13.047285111644,-22.1364985726804,9.39998178420248,-20.4031279361955,-35.0317197470815,-22.381453877187,80.1296993098419,-17.6992284508383,-17.2737739589738,-5.20549596607329
8.85584020040311,-12.9470734318679,-22.0958622176199,9.31207660742577,-19.9318944717103,-34.7087358105275,-22.0756820939851,79.9249781070568,-17.5906599537672,-16.461078503522,-5.89494475479801
9.06194287753236,-12.8430722736255,-22.0545864907386,9.22575886754729,-19.460183449206,-34.3736824129955,-21.7699070050377,79.7135646261509,-17.477551100519,-15.6385092330762,-6.58646764478763
9.25378328374974,-12.7354058265992,-22.012735210006,9.14138286637422,-18.9890021459383,-34.026866448223,-21.46434262625,79.4951197841424,-17.3600125640578,-14.8143895371209,-7.27377808723086
9.43077076589914,-12.6241891936054,-21.9703563842185,9.05925368687708,-18.51930919785,-33.6686304548112,-21.1591111787567,79.269191290259,-17.2381222367099,-13.9974868661265,-7.9502183515731
9.59245351237021,-12.5095293987702,-21.9274870210294,8.97961981450567,-18.0520007012174,-33.2993445660354,-20.8542464511695,79.0352135973177,-17.1119251099512,-13.1966997736092,-8.60902473307328
9.73852560819463,-12.3915270496056,-21.8841577836561,8.90266692899511,-17.5878971424536,-32.919398406134,-20.549699168178,78.7925092733226,-16.981436045137,-12.4207389735234,-9.24359708519983
9.86883244481381,-12.2702784680539,-21.8403973354282,8.82851309387536,-17.1277315991439,-32.5291930526489,-20.2453440629479,78.5402917285976,-16.8466454049179,-11.6778221087805,-9.84775473969224
9.98337438385116,-12.1458780894191,-21.7962362167954,8.7572055328341,-16.6721396226303,-32.1291332185436,-19.9409883275507,78.2776692341942,-16.7075273725747,-10.9754011510162,-10.415961599484
10.0823085686965,-12.0184209250391,-21.7517101058752,8.68871913752098,-16.2216511663446,-31.7196198435773,-19.636381131886,78.0036501781892,-16.5640506452949,-10.3199381937944,-10.9435062147431
10.1659487659427,-11.8880048926937,-21.7068623275058,8.62295680239625,-15.7766848587471,-31.3010433130723,-19.3312239507643,77.7171495182175,-16.4161910595204,-9.71674070360171,-11.4266271558365
10.2347631019671,-11.754732835726,-21.6617455011187,8.55975163079446,-15.3375448292592,-30.8737775367347,-19.0251814971846,77.4169963937346,-16.2639456060629,-9.16986192685109,-11.8625791135547
10.2893695404664,-11.6187140761675,-21.6164222517106,8.49887100190472,-14.904420185237,-30.4381751175131,-18.7178931007694,77.1019428581459,-16.1073472245433,-8.68206673201339,-12.2496402827484
10.3305289279149,-11.4800653776137,-21.5709649444083,8.44002242866801,-14.4773871240702,-29.9945638222581,-18.4089843834985,76.7706736832457,-15.9464797270831,-8.25485808774542,-12.5870663352479
10.3591354202796,-11.3389112275229,-21.5254544403607,8.38286107175945,-14.0564135626553,-29.5432445344838,-18.098079078388,76.4218171831897,-15.7814921869861,-7.88855502805677,-12.8750002859013
10.3762041016577,-11.1953833825204,-21.4799779146563,8.32699870882821,-13.6413660826333,-29.0844908259936,-17.7848108240221,76.0539570063253,-15.6126121404124,-7.58240982429509,-13.1143503520343
10.3828556205317,-11.0496196543858,-21.4346258280929,8.27201389587756,-13.2320189197894,-28.6185502317429,-17.4688347570444,75.6656448492889,-15.4401569880062,-7.33475069842137,-13.3066490400993
10.3802977093814,-10.9017619538958,-21.3894881990015,8.21746300159915,-12.8280646628322,-28.1456472571364,-17.1498387187635,75.2554140546958,-15.2645430441873,-7.14313700966319,-13.4539059723065
10.3698035256098,-10.7519536576543,-21.3446503696488,8.1628917475898,-12.4291262698939,-27.6659880927894,-16.8275538929124,74.8217940580771,-15.086291756337,-7.00451596215601,-13.5584648367107
10.3526868620255,-10.6003364135394,-21.3001884964514,8.10784685404018,-12.0347699700189,-27.1797669564864,-16.5017647007159,74.3633256493451,-14.9060327000437,-6.91537258923838,-13.6228721659133
10.3302744266945,-10.4470465424274,-21.2561650120509,8.05188738153094,-11.6445186026579,-26.6871739220053,-16.1723177941854,73.8785770072946,-14.7245030537483,-6.87186746656251,-13.649762981039
10.3038755836397,-10.2922112201585,-21.2126243119209,7.99459537948817,-11.2578649636034,-26.1884040314201,-15.8391300031288,73.3661604517722,-14.5425433742208,-6.8699591706252,-13.6417658016936
10.2747501703704,-10.1359446328941,-21.1695889113601,7.93558549468086,-10.8742847668125,-25.6836674275083,-15.5021951017651,72.8247498381283,-14.3610896362199,-6.90551084439354,-13.6014272212824
10.2440752509418,-9.97834429338677,-21.1270563028976,7.87451324849999,-10.4932488933488,-25.1732001899255,-15.1615892670245,72.2530984946313,-14.1811616598587,-6.97438224678198,-13.5311542910905
10.2129119018922,-9.81948769038277,-21.0849967212746,7.8110817530082,-10.1142346768548,-24.6572755133351,-14.8174751036446,71.6500575790154,-14.0038482137052,-7.07251030071853,-13.4331713655415
10.1821733341716,-9.65942942468268,-21.0433519948061,7.74504670125778,-9.73673606214225,-24.1362148272136,-14.4701041125828,71.0145947074429,-13.8302892297809,-7.19598206873506,-13.3094871087037
10.1525957947926,-9.49819896774016,-21.0020356286275,7.67621953718416,-9.36027255674289,-23.6103984259113,-14.1198174831093,70.3458126856298,-13.6616556787486,-7.34110363937288,-13.1618676069538
10.1247137364996,-9.33579916369783,-20.9609342248668,7.60446878325542,-8.98439695999012,-23.0802751571352,-13.7670451000933,69.6429681423251,-13.4991277234791,-7.50446655189322,-12.9918130507172
10.0988406687519,-9.17220558286445,-20.9199102919991,7.52971957702687,-8.60870189324161,-22.5463707154699,-13.4123026789626,68.9054898264043,-13.3438718072879,-7.68301106238636,-12.8005374424096
10.075056898599,-9.00736682092328,-20.8788064251594,7.45195153751812,-8.23282517338098,-22.009294115774,-13.0561869733505,68.1329962820294,-13.1970173563891,-7.87408379160257,-12.5889523495809
10.0532050430085,-8.84120581897704,-20.8374507493654,7.37119514662216,-7.85645408154975,-21.4697419872496,-12.6993690473937,67.3253125676466,-13.0596337955965,-8.07548632971804,-12.3576566192166
10.0328937710388,-8.67362225108284,-20.795663414448,7.28752688747045,-7.47932858866723,-20.928500431355,-12.3425856666103,66.4824856416965,-12.9327085909061,-8.2855109428003,-12.1069344288813
10.0135097568065,-8.50449598747838,-20.753263830418,7.20106342692338,-7.10124360928203,-20.3864443111436,-11.986628932613,65.6047980065295,-12.8171270290592,-8.50295952359758,-11.836764189541
9.99423734358448,-8.33369159486453,-20.7100782580898,7.11195515773455,-6.72205036192465,-19.8445339625102,-11.632334357353,64.6927791851087,-12.7136544057886,-8.72714245120072,-11.5468405562375
9.97408498702307,-8.1610637823387,-20.6659473398714,7.02037942431037,-6.34165691491823,-19.3038094183046,-11.2805676349888,63.7472146048442,-12.6229212151124,-8.95785510737772,-11.2366110853655
9.95191720438028,-7.98646364631114,-20.6207331723331,6.92653374625549,-5.960027991064,-18.765382307131,-10.9322104251875,62.7691514810742,-12.5454118217088,-9.19533136746848,-10.9053279332098
9.92649053457288,-7.80974551469458,-20.5743255744887,6.8306293305027,-5.57718409268184,-18.230425636881,-10.5881455147477,61.7599013290267,-12.4814569730673,-9.44017531918842,-10.5521135150468
9.89649192036488,-7.63077414501283,-20.5266472783706,6.7328851275428,-5.19319999209475,-17.7001617106437,-10.2492417704851,60.7210387857458,-12.4312303770432,-9.69327459099261,-10.1760373873468
9.86057795127393,-7.44943199791908,-20.4776578490398,6.63352263865306,-4.80820261836274,-17.1758484568233,-9.91633932267091,59.6543964908634,-12.3947494326714,-9.95570075018917,-9.77619997537174
9.81741353263926,-7.26562629179549,-20.4273562222128,6.53276161894706,-4.42236836718836,-16.6587644843964,-9.59023541482032,58.5620558550905,-12.3718800527187,-10.2286039423147,-9.35181740414057
9.76570874396699,-7.07929554907031,-20.3757818251994,6.43081675067416,-4.03591987007086,-16.150193192246,-9.27167132319887,57.4463336349307,-12.3623453568921,-10.5131098869496,-8.90230094592792
9.70425288753656,-6.89041537128253,-20.3230143170899,6.32789529202503,-3.6491222742141,-15.6514062674496,-8.96132069830353,56.309764329969,-12.3657378580105,-10.8102271444868,-8.42732479593861
9.63194497856479,-6.69900322495915,-20.2691720421199,6.22419564882227,-3.26227909586084,-15.1636469082757,-8.65977962140238,55.1550785254346,-12.3815346300813,-11.1207711622357,-7.92687708188604
9.5478201690248,-6.50512207833481,-20.2144093310828,6.11990677668877,-2.87572771160902,-14.6881131112739,-8.36755860590134,53.9851774149659,-12.4091148532813,-11.4453094467685,-7.40129083805638
9.45107181349642,-6.30888279231954,-20.1589128072533,6.01520830130113,-2.48983454904589,-14.2259413694292,-8.08507670685634,52.8031038497985,-12.4477790777913,-11.7841299950711,-6.85125355427443
9.34106906882992,-6.11044522984309,-20.1028968570142,5.91027124079125,-2.10499003901484,-13.7781911345865,-7.81265783806061,51.6120103650922,-12.4967695222043,-12.1372332986053,-6.2777954515534
9.21737006706997,-5.91001809882527,-20.0465984171623,5.80525922002691,-1.72160340323173,-13.3458303944583,-7.5505293410424,50.4151247311873,-12.5552907091492,-12.504346858281,-5.68225777316391
9.07973081406903,-5.70785758209563,-19.9902712201177,5.70033007294115,-1.34009737028442,-12.9297226959459,-7.29882280055709,49.2157136708625,-12.622529746973,-12.8849601158026,-5.06624320875245
8.92811004796309,-5.50426483439859,-19.9341796340111,5.59563773195159,-0.960902932117286,-12.5306159091674,-7.05757704793886,48.0170454763219,-12.6976756118914,-13.2783769365803,-4.43155120565202
8.76267034672284,-5.29958244819742,-19.8785922399826,5.49133430637626,-0.584454265574597,-12.1491329727389,-6.82674323805097,46.8223523475112,-12.7799368769284,-13.6837821546875,-3.78010148918047
8.58377580700805,-5.09419001222087,-19.8237752986548,5.38757226038829,-0.211183945922142,-11.7857647991944,-6.60619183793482,45.6347933405147,-12.8685574548099,-14.1003180741533,-3.11384971211379
8.39198663175171,-4.88849891109342,-19.7699862616154,5.28450661159247,0.158481433300503,-11.4408654619945,-6.39572132693696,44.4574188407992,-12.9628300460143,-14.527166163852,-2.43469979946487
8.18805096469341,-4.68294653847854,-19.7174674756582,5.18229707081625,0.524125152289411,-11.1146497399093,-6.19506836680408,43.2931374498708,-13.0621070926802,-14.9636285494424,-1.74441817309893
7.97289429895625,-4.47799011670583,-19.666440212142,5.08111002675274,0.885343738912405,-10.8071930565126,-6.00391914968236,42.1446860990392,-13.1658091260772,-15.409203406598,-1.04455550527373
7.74760676529501,-4.27410032968007,-19.6170991448409,4.98112025644889,1.24174985710589,-10.5184338074664,-5.82192158395797,41.0146040912106,-13.2734304603251,-15.8636481299099,-0.336381812141693
7.51342857460038,-4.07175497937142,-19.5696074073639,4.88251222891661,1.59297480349147,-10.2481780043526,-5.64869794716226,39.905211627898,-13.3845422392005,-16.3270244229363,0.37915965905862
7.2717338487433,-3.87143286654238,-19.5240923801252,4.78548086804532,1.9386707569835,-9.99610608512904,-5.48385762062107,38.8185932038465,-13.4987929033362,-16.7997205061414,1.10147541239269
7.02401302358407,-3.67360807239697,-19.4806423691124,4.69023164837408,2.27851295940857,-9.7617816641612,-5.32700951170597,37.7565860495919,-13.6159062188521,-17.2824474712363,1.83031905907116
6.77185394757187,-3.47874477963938,-19.4393043298584,4.59697991415076,2.61220201038421,-9.54466193253592,-5.17777376671059,36.7207735921897,-13.73567708301,-17.7762089552309,2.56576263291918
6.51692172885673,-3.28729272116593,-19.4000827579685,4.5059493451415,2.93946642862619,-9.34410937703003,-5.03579239144215,35.7124837140926,-13.8579653797005,-18.2822451793654,3.30814321327632
6.26093730443951,-3.09968328770191,-19.3629398190029,4.41736954233558,3.26006556701206,-9.15940446585041,-4.90073843015234,34.7327914388364,-13.9826881935652,-18.801953779766,4.05798746798791
6.00565462010094,-2.91632626983934,-19.3277967337978,4.3314727632164,3.57379288299004,-8.98975895322655,-4.77232339660712,33.7825255652939,-14.1098107152518,-19.3367909321046,4.81591768290513
5.75283622702065,-2.73760716247308,-19.2945363762573,4.24848988825588,3.8804794741915,-8.83432948224723,-4.6503026983139,32.8622787081882,-14.2393361850382,-19.8881573048265,5.58254372085855
5.50422703324807,-2.56388492499647,-19.2630069832467,4.16864574385847,4.17999770182828,-8.69223120905968,-4.53447885382549,31.9724201773288,-14.3712952201355,-20.4572744697291,6.3583462681366
5.26152591647854,-2.39549006967507,-19.2330268251868,4.09215394665231,4.47226464763129,-8.56255122069135,-4.42470238439981,31.1131111357373,-14.5057348473688,-21.0450584893036,7.14355766326741
5.02635493913242,-2.23272294260462,-19.2043896466909,4.01921147607493,4.75724509093196,-8.44436156353686,-4.32087036716525,30.2843215084705,-14.6427075248043,-21.6519983508232,7.93804744762876
4.80022604634314,-2.07585206682156,-19.1768706629817,3.94999322594079,5.0349536629578,-8.33673173392965,-4.22292275909652,29.4858481570774,-14.7822603958392,-22.2780475651347,8.74122036420676
