Finger Velocity,Scap_X,Scap_Y,Scap_Z,Shoulder horiz abd-adduction,Shoulder flexion-extension,Shoulder internal-external rotation,elbow flexion-extension,forearm pronation-supination,wrist flexion-extension,wrist radial-ulnar deviation
1.6284379296323,-12.3600289551927,-21.0604134464154,13.4060927378127,-34.0017903173861,-34.9928742367597,-31.3964956694127,78.3894134698354,-15.7478438519425,-33.0567099803634,8.00391118260706
2.20716768884145,-12.3398066502729,-21.0608318100862,13.3156871072711,-34.147427732283,-34.8755379463081,-31.4835910026794,78.4981607324665,-15.5542694904647,-31.8076669546298,6.8028380515624
2.8535761016127,-12.3206567176504,-21.0638711145682,13.2230887595087,-34.2931857853404,-34.7566347985888,-31.5624277403087,78.6389130906878,-15.3541919022124,-30.7210859472004,5.79420660172298
3.56525105805914,-12.3033591102787,-21.0695327085284,13.1284348863213,-34.4376637380336,-34.6345800004672,-31.6308428361681,78.8150543810892,-15.1478217026919,-29.7761684921785,4.95838553604368
4.33995025672778,-12.2887271845489,-21.0777317840073,13.0318800024605,-34.5793488432559,-34.5075697420639,-31.6865723939069,79.0298335850485,-14.9353926307198,-28.9509924685409,4.27408376368584
5.17507812527689,-12.2775926137626,-21.0882944855412,12.933595193084,-34.7166287747853,-34.3735999843987,-31.7272764816028,79.286304681944,-14.7171449975777,-28.2240274996586,3.71982889140203
6.06748555126716,-12.2707891724935,-21.1009563973636,12.8337664468435,-34.8478076669062,-34.2304910512902,-31.7505668017231,79.5872680007019,-14.4933065510005,-27.5751645479007,3.27497395909104
7.013391922327,-12.2691357240474,-21.1153623610699,12.7325920730172,-34.9711258620835,-34.075917704961,-31.7540365818938,79.9352145297678,-14.2640719155679,-26.9863424045565,2.92031633547009
8.00836382881733,-12.2734187813329,-21.1310675647703,12.6302792320192,-35.0847832595951,-33.9074441754195,-31.7352919080148,80.3322744477312,-14.0295819709617,-26.4418640094106,2.63842259446602
9.04732559913764,-12.2843750299617,-21.1475398345058,12.5270396464652,-35.1869659412522,-33.7225634071466,-31.6919836277226,80.7801708673837,-13.7899046117585,-25.9284881891624,2.41374546131314
10.1245910064431,-12.3026742042196,-21.1641630484909,12.4230846067522,-35.2758755386591,-33.5187396024854,-31.6218389211178,81.280179479349,-13.5450183165711,-25.4353676139725,2.23260371343469
11.2339109140602,-12.3289026970386,-21.1802415852599,12.3186194377769,-35.3497606161761,-33.2934529958122,-31.5226916721219,81.8330944754329,-13.294799853483,-24.9538874810131,2.08307923170776
12.3685338405183,-12.3635482681818,-21.1950057116278,12.2138376394359,-35.406949186854,-33.0442456988105,-31.3925108705901,82.4392008680426,-13.0390172613576,-24.4774447880513,1.95487034592087
13.5212773453259,-12.4069861914853,-21.207617819577,12.1089149373122,-35.4458813622026,-32.7687674245094,-31.229426414683,83.09825313929,-12.77732896943,-24.0011964322493,1.83912849687316
14.684608500948,-12.4594671520689,-21.2171794318608,12.0040034750515,-35.4651410642426,-32.4648199300132,-31.0317518463515,83.8094600736779,-12.5092895607378,-23.5217959473421,1.72829618623775
15.8507318328411,-12.5211071688521,-21.2227389062705,11.8992263529217,-35.4634857017489,-32.1303991091756,-30.798003730052,84.5714756488089,-12.2343622745269,-23.0371329833163,1.61595774095259
17.0116831163663,-12.5918797776813,-21.2232997688325,11.794672680769,-35.4398727369149,-31.76373379855,-30.5269175769173,85.3823959599617,-11.9519379118121,-22.546085868846,1.49670989292504
18.1594273836069,-12.6716106657028,-21.2178295948348,11.6903932782863,-35.3934821530319,-31.3633205075696,-30.2174604254764,86.2397623162411,-11.6613593913162,-22.0482949304614,1.36605581741495
19.2859594486553,-12.7599748980643,-21.2052693411269,11.5863971245857,-35.3237339813769,-30.9279534287375,-29.8688404044563,87.1405708531261,-11.3619508395129,-21.543961952282,1.22032345384371
20.3834052251917,-12.8564968257623,-21.184543023751,11.4826486310546,-35.2303002438142,-30.456749222265,-29.4805137988863,88.0812892393102,-11.0530498287891,-21.0336789343298,1.05660640118601
21.4441220953811,-12.9605527115588,-21.1545676352283,11.3790657853739,-35.1131108955365,-29.9491662053696,-29.0521902914543,89.057881278293,-10.7340412270754,-20.5182872670744,0.872723603843049
22.4607965999247,-13.0713760605199,-21.1142632000232,11.2755191919114,-34.9723535955343,-29.4050177066899,-28.5838371344585,90.0658403655059,-10.4043910902976,-19.9987668069972,0.667192679668114
23.4265377583771,-13.1880655931257,-21.0625628665493,11.1718320157159,-34.8084673840732,-28.8244794618685,-28.0756830063453,91.1002328069298,-10.0636790953058,-19.4761531486553,0.439211106089797
24.3349643975781,-13.3095957541062,-20.9984229270494,11.0677808236908,-34.6221305932965,-28.2080910197616,-27.5282222122387,92.1557518882098,-9.71162814744172,-18.9514805310824,0.18863938011196
25.1802849638559,-13.4348296112883,-20.9208326464794,10.9630973075497,-34.4142435305111,-27.5567512004511,-26.9422197038151,93.2267832619192,-9.34812997760302,-18.425747208496,-0.0840194521459727
25.9573684201447,-13.5625339643296,-20.8288237721547,10.8574708707832,-34.1859066228444,-26.8717077065118,-26.3187171386692,94.3074816691742,-8.97326575129012,-17.8998997639349,-0.377648848342492
26.661804980063,-13.6913964485154,-20.7214795887619,10.7505520669709,-33.938394789911,-26.1545410497148,-25.6590399036079,95.391858247756,-8.58732093519211,-17.3748327751843,-0.690560290440894
27.2899556044935,-13.8200443795236,-20.5979433792241,10.6419568848667,-33.67312884557,-25.4071430193283,-24.9648047187917,96.4738767770592,-8.19079388638637,-16.8514004288865,-1.02054971745241
27.8389893789533,-13.9470650396838,-20.4574261532133,10.5312718753201,-33.3916447588425,-24.6316899853419,-24.2379271336518,97.5475562864609,-7.78439781665107,-16.3304370313496,-1.36496965464858
28.3069080984839,-14.0710270562461,-20.2992135155254,10.4180600952428,-33.0955616421443,-23.8306114129222,-23.4806279298288,98.6070766340561,-7.36905592070002,-15.8127837553411,-1.72081614726261
28.6925576072056,-14.1905024726683,-20.1226715693236,10.3018678057032,-32.7865493677688,-23.0065540828579,-22.6954371890218,99.6468830583236,-6.94588954948514,-15.2993192617802,-2.08482809160029
28.9956256684683,-14.3040890733903,-19.92725178554,10.1822318180684,-32.4662967177159,-22.1623426722194,-21.8851946132148,100.661785399549,-6.51619938898927,-14.7909919514858,-2.45359532998861
29.216626375266,-14.4104324988137,-19.712494817259,10.058687346647,-32.1364809338529,-21.3009375328719,-21.0530446441835,101.647047730716,-6.08143971327471,-14.2888515160288,-2.82367102774387
29.3568713462614,-14.508247683175,-19.4780332902749,9.93077620555752,-31.798739454767,-20.4253906805201,-20.2024250367698,102.598464540284,-5.64318595836146,-13.7940772473566,-3.19168342331599
29.4184281878144,-14.5963391618168,-19.2235936472576,9.79805518684314,-31.4546445078302,-19.5388011397755,-19.3370477975591,103.512420338641,-5.20309613697956,-13.308000395338,-3.55444202092056
29.4040669348175,-14.6736198225634,-18.9489971512324,9.66010447692174,-31.1056810741304,-18.644270860393,-18.460871800332,104.385930542817,-4.76286698610312,-12.8321179056008,-3.90903362898447
29.3171954113789,-14.7391277158161,-18.6541601606856,9.5165359994745,-30.7532285666356,-17.7448624219805,-17.5780669062955,105.216662631049,-4.32418618557133,-12.368095222578,-4.25290428358477
29.1617846753098,-14.7920405875495,-18.3390937828454,9.36700160028368,-30.3985463731822,-16.8435596808046,-16.6929699977703,106.002937735168,-3.88868245616709,-11.9177564876284,-4.58392395903515
28.942285926919,-14.8316878554542,-18.0039030082951,9.21120100590028,-30.042763237349,-15.9432323818564,-15.8100339113315,106.743713934218,-3.4578757633399,-11.4830613337708,-4.90043194473559
28.6635404714671,-14.8575598069445,-17.6487854370924,9.0488894946778,-29.6868703033494,-15.0466055628627,-14.9337707675636,107.438553423698,-3.03313013272865,-11.0660685223412,-5.20126174884555
28.3306845236054,-14.8693138578779,-17.2740297202536,8.87988521860228,-29.3317175498908,-14.1562343260597,-14.0686915901441,108.087576397133,-2.61561165885319,-10.6688878093488,-5.48574532126022
27.9490508275549,-14.86677777799,-16.8800138502027,8.70407610685379,-28.9780132850075,-13.2744842718528,-13.2192443511979,108.69140486751,-2.20625413075829,-10.2936225515515,-5.75369725515553
27.5240692327931,-14.849949870148,-16.4672034308462,8.52142626416907,-28.6263263606388,-12.4035176032971,-12.3897526512545,109.25109978254,-1.80573431833356,-9.94230653804998,-6.0053804180598
27.0611685028992,-14.8189961847965,-16.0361500392465,8.33198174938162,-28.2770907798373,-11.5452846453381,-11.5843571379822,109.768094675416,-1.41445839802259,-9.61683923425959,-6.24145519803333
26.5656817330481,-14.7742449446254,-15.5874897562354,8.13587558982579,-27.9306124037033,-10.7015202971657,-10.8069615086503,110.244128780037,-1.03256030143685,-9.31892389467769,-6.4629152749598
26.0427577943819,-14.716178427058,-15.1219418949531,7.93333186493017,-27.5870775177448,-9.87374476471551,-10.061184563841,110.68118207586,-0.659912011351174,-9.05001272552116,-6.67101353209867
25.4972811937702,-14.6454225918342,-14.6403079013087,7.72466867731943,-27.2465630829965,-9.06326781374331,-9.35031932286991,111.081414173245,-0.296145081591662,-8.81126250128725,-6.86718228738929
24.933802617244,-14.5627347531864,-14.143470346316,7.51029981297786,-26.9090485625673,-8.27119575025854,-8.67729971253417,111.447108372106,0.0593180033215266,-8.60350293855514,-7.0529522830535
24.3564821985374,-14.4689895955537,-13.6323918777818,7.2907348697336,-26.5744292646058,-7.49844037920514,-8.04467485164167,111.780621688127,0.407224522398705,-8.42721890652631,-7.22987473053686
23.7690472098213,-14.365163830496,-13.1081139447812,7.06657761690994,-26.2425311663481,-6.74572930620286,-7.45459054251549,112.084341188839,0.748446477571177,-8.2825463648604,-7.39945019393742
23.1747654078635,-14.2523197976008,-12.5717550564374,6.8385223560985,-25.9131271693352,-6.013617104254,-6.90877730481133,112.360646637118,1.08393214167637,-8.16928086797729,-7.56306733579158
22.5764346956016,-14.1315883269732,-12.0245083003135,6.60734809346328,-25.58595467315,-5.30249702862424,-6.40854416264211,112.61187919341,1.41465644157254,-8.08689664481042,-7.72195367287659
21.976389100639,-14.0041512004625,-11.4676378398009,6.37391040833208,-25.260734247461,-4.6126130928139,-5.95477740015334,112.840315752976,1.74157220380187,-8.03457376076981,-7.87713955498901
21.3765203665595,-13.8712235598423,-10.9024741361461,6.13913100735242,-24.9371890519237,-3.94407240096712,-5.54794359774338,113.048148366859,2.06556399215985,-8.01123076042869,-8.02943562903234
20.7783137495245,-13.7340366015496,-10.3304076862749,5.90398508026093,-24.6150645288989,-3.29685767505956,-5.18809641896275,113.237468112294,2.38740594814612,-8.01556041560608,-8.17942318256348
20.1828959666153,-13.5938208691213,-9.75288112272849,5.66948670827753,-24.2941477924921,-2.67083993179834,-4.87488680413765,113.410252750975,2.70772474838401,-8.04606663107285,-8.32745608880565
19.5910927078844,-13.4517904138117,-9.17137959404025,5.4366727013309,-23.9742860648482,-2.06579125625515,-4.60757640454062,113.568357546333,3.02696854008301,-8.10110107628078,-8.47367265400407
19.0034927462947,-13.3091280495563,-8.58741944032593,5.20658533989512,-23.6554034715681,-1.48139758752787,-4.38505423058235,113.713508692834,3.3453825074121,-8.17889863167009,-8.61801548415219
18.4205154882545,-13.1669718887613,-8.00253528432796,4.98025456335754,-23.3375155086314,-0.917271392726118,-4.20585657601109,113.847298920542,3.66299153881102,-8.27761118976335,-8.76025748414447
17.8424788120716,-13.026403317399,-7.41826574204091,4.75868018065193,-23.0207405366983,-0.372964084654141,-4.06819031705185,113.971184950974,3.97959027941049,-8.39533968713158,-8.90003220539562
17.2696642312138,-12.8884365488089,-6.8361380061239,4.5428146854098,-22.7053077471854,0.152021955633797,-3.96995967154115,114.086486569334,4.29474064432055,-8.53016444626259,-9.03686691016085
16.7023767641954,-12.7540098711057,-6.25765158702777,4.33354723975936,-22.3915611781087,0.658221873681525,-3.90879643873991,114.194387129779,4.60777663759732,-8.68017397858262,-9.17021689063947
16.1409973502797,-12.623978663699,-5.6842615332355,4.13168934545486,-22.0799595255633,1.14619746500645,-3.88209363419758,114.295935332894,4.91781608354652,-8.84349236286951,-9.2994997462811
15.5860261703709,-12.4991102095729,-5.11736149253707,3.93796264344157,-21.7710716795149,1.61652702792037,-3.88704230365531,114.392048127849,5.22377864905686,-9.01830520848569,-9.42412845845057
15.0381157659978,-12.3800802790501,-4.55826700758091,3.75298917217959,-21.4655680989534,2.06979602662138,-3.92067115902982,114.483514610249,5.52440932918172,-9.202884075738,-9.54354219271519
14.4980933526704,-12.2674714072479,-4.00819945981631,3.57728427615879,-21.1642083307129,2.50658861973813,-3.97988852853991,114.571000815157,5.81830639092617,-9.39560905648943,-9.65723381757207
13.9669721638349,-12.1617727324637,-3.46827109459104,3.41125220155738,-20.8678251619536,2.92748009210789,-4.06152595158568,114.655055341369,6.10395263086057,-9.59498900779363,-9.76477318912007
13.4459520173891,-12.0633812169586,-2.93947157306329,3.25518426745987,-20.5773060576901,3.3330302226352,-4.16238259432287,114.736115781787,6.37974870874293,-9.7996787244109,-9.86582535504677
12.9364095608265,-11.9726040483219,-2.42265648372819,3.10925938475645,-20.2935726461063,3.7237776198446,-4.27926954902958,114.814515965662,6.64404727717695,-10.008492230758,-9.96016301159045
12.4398788291614,-11.8896620237234,-1.91853819132786,2.9735466317536,-20.0175590605669,4.10023505182107,-4.40905304062201,114.890494032882,6.89518664420578,-10.2204114395847,-10.0476728099676
11.9580228596407,-11.8146937429678,-1.42767931040481,2.84800959262566,-19.7501899322595,4.46288579405883,-4.54869560363558,114.9642013545,7.13152279235961,-10.4345896533157,-10.1283554230966
11.4925971776645,-11.7477604643576,-0.9504889893281,2.732512209701,-19.4923587690401,4.81218102635392,-4.69529439225015,115.03571228682,7.35145873554464,-10.6503497112263,-10.2023196046108
11.0454060373816,-11.6888514978293,-0.487222099165627,2.62682596160068,-19.2449073732095,5.14853832338709,-4.84611591111354,115.10503469816,7.55347040770277,-10.8671769349237,-10.2697707700554
10.6182524125119,-11.6378900168214,-0.0379813457451351,2.5306382204491,-19.00860685918,5.4723412865034,-4.99862657850966,115.172121141208,7.73612851949077,-11.0847073225623,-10.3309948861831
10.212882933386,-11.5947391647052,0.397277742552204,2.44356164523006,-18.7841407441553,5.7839403477286,-5.15051864444863,115.236880473326,7.89811607472699,-11.3027116386408,-10.386338649497
9.83092929192487,-11.5592083221406,0.8187390609136,2.36514444306215,-18.5720905072772,6.08365474779247,-5.29973108298818,115.299189670759,8.03824150063042,-11.5210761334841,-10.4361870539357
9.47384810199002,-11.5310593999756,1.22671558025056,2.29488129658669,-18.3729239420693,6.37177565771472,-5.44446516331852,115.358905549659,8.15544760386445,-11.7397806324051,-10.4809394833643
9.14286178337124,-11.5100130317264,1.62163664261133,2.23222473354952,-18.1869865573786,6.64857038082585,-5.58319449057877,115.415876094964,8.24881679280456,-11.9588746986448,-10.5209854233574
8.83890365326392,-11.4957545547267,2.00403320661508,2.17659671545059,-18.0144962103393,6.91428753537775,-5.71466941412185,115.46995110584,8.31757317666493,-12.1784525321151,-10.5566807913425
8.56257091723212,-11.4879396872435,2.37452142204562,2.12740024199364,-17.8555410754741,7.16916307272403,-5.8379158337005,115.520991893222,8.36108224827135,-12.3986272432764,-10.5883257679033
8.31408946282909,-11.4861998372133,2.73378497957621,2.08403078737989,-17.7100809549619,7.41342693111569,-5.9522285756403,115.56887980501,8.37884887890499,-12.6195051491126,-10.6161448992276
8.09329407901489,-11.4901470229745,3.08255672928008,2.04588738239339,-17.5779518112634,7.6473100662952,-6.05715963590416,115.613523402162,8.37051431022723,-12.8411607705404,-10.6402701343167
7.89962682190129,-11.4993784395533,3.42160007854785,2.01238312993636,-17.4588732705221,7.8710515505025,-6.15250168248157,115.654864168612,8.33585273485797,-13.0636132495496,-10.6607273504193
7.73215472590859,-11.513480745965,3.75169066517222,1.98295491122838,-17.3524587321376,8.08490540443711,-6.2382672848659,115.692880716315,8.27476793449345,-13.2868049271913,-10.6774267949725
7.58960610115059,-11.5320341645848,4.07359876447471,1.9570720316242,-17.2582276461212,8.28914682715043,-6.31466441337952,115.727591539391,8.18729032004557,-13.5105828122884,-10.6901577224505
7.47042260532569,-11.554616473176,4.38807284140477,1.93424358184357,-17.1756194850519,8.48407751425747,-6.38206883848957,115.759056462923,8.07357461304201,-13.7346836155921,-10.6985873274782
7.37282254781005,-11.5808069427691,4.69582460310665,1.91402435012841,-17.1040089308163,8.67002980259494,-6.44099415959038,115.78737700595,7.93389831292127,-13.9587229166787,-10.7022638871998
7.29486983675448,-11.6101902369938,4.99751584398716,1.89601920469974,-17.0427218096812,8.84736944792166,-6.49206029433093,115.812695923669,7.76866097838645,-14.1821888629436,-10.700623856039
7.23454280848349,-11.6423602444909,5.29374730819964,1.87988595959382,-16.9910513387746,9.01649692310927,-6.53596134555336,115.835196208373,7.57838419661073,-14.4044405770689,-10.6930025257796
7.18979785190896,-11.67692377297,5.58504973153608,1.86533682004359,-16.948274286594,9.1778472017936,-6.57343381012805,115.855099818556,7.36371194386306,-14.6247112061861,-10.6786477750209
7.15862403607697,-11.7135040013864,5.87187716622164,1.85213855858495,-16.9136666902753,9.33188805644495,-6.60522608767087,115.872666379936,7.12541088709445,-14.8421153438173,-10.656736382742
7.13908654084681,-11.751743571815,6.15460263005034,1.84011159518877,-16.8865188066853,9.47911695221396,-6.63207019081282,115.888192064,6.86437005229062,-15.0556604426496,-10.6263923722269
7.12935825588976,-11.791307204908,6.43351605246494,1.82912815073667,-16.8661490035537,9.62005666411323,-6.65465646447272,115.902008794741,6.58159920236459,-15.264261796846,-10.586706868276
7.12774020964457,-11.831883738818,6.70882442228057,1.8191096254376,-16.8519163260267,9.75524978570804,-6.67361199696153,115.914483862391,6.2782252492243,-15.4667606426869,-10.5367589608713
7.13267239000843,-11.8731875169854,6.98065398616222,1.8100233354922,-16.8432315077252,9.88525232900212,-6.68948325576588,115.92601994943,5.95548609265639,-15.6619448685215,-10.4756370617925
7.14273700149968,-11.9149590827372,7.24905431002056,1.80187873149458,-16.839566233091,10.0106266335945,-6.70272331508437,115.937055518777,5.61472143023398,-15.848571758332,-10.4024602372284
7.15665632365522,-11.9569651771466,7.51400399459748,1.79472322161826,-16.8404604947948,10.1319338079478,-6.71368387386503,115.94806548077,5.25736029495823,-16.0253921495555,-10.3163990148257
7.17328718489566,-11.9989980786968,7.7754178221721,1.78863772453242,-16.8455279230285,10.2497259212536,-6.72261210364716,115.959562031442,4.88490532105949,-16.1911753784117,-10.2166951937818
7.19161374512179,-12.0408743644138,8.03315509515778,1.7837320703001,-16.8544589941104,10.3645381558544,-6.72965221753028,115.972095526156,4.49891398190106,-16.3447344201929,-10.1026802282107
7.21073987754813,-12.082433207746,8.28702890927012,1.78014034502285,-16.867022057979,10.4768811175072,-6.73485150786766,115.986255218845,4.10097725413871,-16.4849507067185,-9.97379180952247
7.22988202411149,-12.1235343560941,8.53681609148652,1.77801624192253,-16.8830621596632,10.5872334799924,-6.73817045836353,116.002669668225,3.69269630731186,-16.6107981911704,-9.82958833280704
7.24836301583658,-12.1640559494557,8.78226753414213,1.77752845378568,-16.9024976684568,10.6960351099939,-6.73949640901249,116.022006600328,3.27565788401243,-16.7213662829668,-9.66976097162189
