Finger Velocity,Scap_X,Scap_Y,Scap_Z,Shoulder horiz abd-adduction,Shoulder flexion-extension,Shoulder internal-external rotation,elbow flexion-extension,forearm pronation-supination,wrist flexion-extension,wrist radial-ulnar deviation
0.788975541,-13.3991624,-23.09416216,9.801013398,-33.09246349,-34.36915424,-27.71946288,73.4905494,-25.98734349,-65.1706911,51.50295075
0.875048384,-13.36208674,-23.11577419,9.766052596,-33.2179945,-34.33312992,-27.74260863,73.69709473,-25.92210524,-64.26423839,50.46795196
1.001764619,-13.32437266,-23.13502337,9.725347286,-33.34262687,-34.30095809,-27.76472204,73.91429278,-25.85770758,-63.31254547,49.37766853
1.170989315,-13.28615008,-23.15159818,9.678800358,-33.46491096,-34.27225319,-27.78543111,74.14218444,-25.79506306,-62.32076706,48.23762179
1.382038453,-13.24754858,-23.16518173,9.62635036,-33.58319637,-34.24651489,-27.80424187,74.38071589,-25.7350781,-61.29560289,47.05495281
1.633097486,-13.20869149,-23.17545805,9.567973523,-33.69563537,-34.22312271,-27.82052917,74.62972727,-25.67862947,-60.24528008,45.83840385
1.922085174,-13.1696895,-23.18211852,9.503685512,-33.80019099,-34.20133216,-27.83353075,74.88894161,-25.62654095,-59.1794363,44.59820055
2.246975598,-13.13063385,-23.18486849,9.4335428,-33.89465025,-34.18027239,-27.84234519,75.15795437,-25.57956098,-58.10889583,43.34582673
2.605833066,-13.09158956,-23.18343387,9.35764354,-33.9766424,-34.1589459,-27.84593398,75.43622373,-25.53834186,-57.04534142,42.09369526
2.996744941,-13.05258855,-23.17756752,9.276127832,-34.04366217,-34.13623024,-27.84312811,75.72306184,-25.50342135,-56.00089806,40.85473126
3.417738494,-13.01362331,-23.16705525,9.189177279,-34.0930979,-34.11088218,-27.83263916,76.01762726,-25.47520731,-54.98765695,39.64189594
3.86671182,-12.974641,-23.15172133,9.097013741,-34.12226425,-34.08154422,-27.81307499,76.31891878,-25.45396566,-54.01717703,38.46768872
4.341385422,-12.93553843,-23.13143322,8.999897253,-34.12843909,-34.04675377,-27.78295962,76.62577082,-25.43981222,-53.10000548,37.34366901
4.839273154,-12.89615804,-23.10610547,8.898123074,-34.108904,-34.00495467,-27.74075718,76.93685053,-25.4327084,-52.24525698,36.28003692
5.357669411,-12.85628505,-23.07570251,8.792017929,-34.0609878,-33.95451115,-27.68489923,77.25065668,-25.43246066,-51.46028367,35.28530504
5.893649551,-12.81564592,-23.04024046,8.681935516,-33.98211212,-33.89372396,-27.61381497,77.56552028,-25.43872349,-50.75045705,34.36608133
6.44408108,-12.77390825,-22.99978755,8.568251436,-33.86983832,-33.82084827,-27.52596361,77.87960691,-25.45100538,-50.11906943,33.52697096
7.005643712,-12.73068215,-22.95446348,8.451357722,-33.72191436,-33.7341133,-27.41986789,78.19092047,-25.46867727,-49.5673506,32.7705915
7.574856787,-12.68552325,-22.90443746,8.331657162,-33.53632077,-33.63174326,-27.29414783,78.49730836,-25.49098286,-49.09458515,32.09768685
8.148112808,-12.63793707,-22.84992507,8.209557634,-33.31131433,-33.51197933,-27.14755361,78.79646785,-25.51705038,-48.69830927,31.50731785
8.721716021,-12.58738509,-22.79118387,8.085466644,-33.04546833,-33.37310277,-26.97899639,79.0859536,-25.5459051,-48.3745628,30.99710528
9.291925042,-12.53329202,-22.72850786,7.959786237,-32.73770824,-33.21345877,-26.78757609,79.36318643,-25.57648256,-48.11817262,30.56350065
9.854998585,-12.47505437,-22.66222087,7.832908424,-32.38734175,-33.03148119,-26.57260494,79.62546335,-25.60764219,-47.92304573,30.20206301
10.40724333,-12.41205,-22.59266882,7.705211227,-31.99408198,-32.8257179,-26.33362617,79.86996924,-25.63818141,-47.78245467,29.90772419
10.945063,-12.34364841,-22.52021127,7.57705542,-31.55806307,-32.59485682,-26.07042673,80.09379035,-25.66685036,-47.68930256,29.6750294
11.46500766,-12.26922153,-22.44521224,7.448782042,-31.07984746,-32.33775208,-25.78304358,80.2939302,-25.69236751,-47.63635928,29.49834501
11.96382227,-12.18815457,-22.36803061,7.320710714,-30.56042429,-32.05345038,-25.47176317,80.46732808,-25.71343646,-47.61646432,29.37202898
12.43849346,-12.09985669,-22.28901047,7.193138741,-30.00119875,-31.74121659,-25.13711392,80.61088051,-25.72876402,-47.6226946,29.29056285
12.88629356,-12.00377117,-22.20847152,7.066340968,-29.4039723,-31.40055833,-24.77985178,80.72146598,-25.73707991,-47.6484975,29.24864681
13.30482093,-11.89938454,-22.12669998,6.940570247,-28.77091419,-31.03124857,-24.40093941,80.79597277,-25.73715769,-47.68779105,29.24126087
13.69203546,-11.78623449,-22.04394043,6.816058366,-28.10452492,-30.63334541,-24.00151962,80.83132981,-25.7278372,-47.73503406,29.26369667
14.04628849,-11.66391628,-21.96038873,6.693017232,-27.40759233,-30.20720819,-23.58288396,80.82454014,-25.70804781,-47.78526922,29.31156514
14.36634612,-11.53208724,-21.87618665,6.571640091,-26.6831418,-29.75350875,-23.14643781,80.77271614,-25.67683256,-47.83414307,29.38078556
14.65140521,-11.39046948,-21.79141847,6.45210259,-25.93438173,-29.27323709,-22.69366333,80.67311602,-25.6333724,-47.87790622,29.46756149
14.90110118,-11.23885059,-21.70610976,6.334563498,-25.16464622,-28.76770046,-22.22608196,80.52318024,-25.57701017,-47.91339724,29.56834898
15.11550722,-11.07708245,-21.62022868,6.219164964,-24.37733648,-28.23851549,-21.74521811,80.32056703,-25.50727361,-47.93801352,29.67982135
15.29512427,-10.90507839,-21.53368967,6.106032251,-23.57586313,-27.68759292,-21.25256582,80.06318572,-25.42389657,-47.94967182,29.79883467
15.44086159,-10.72280879,-21.44635945,5.995272936,-22.76359108,-27.11711525,-20.74955972,79.74922689,-25.32683757,-47.94676109,29.92239688
15.55400792,-10.53029544,-21.35806518,5.886975629,-21.94378869,-26.52950754,-20.23755176,79.37718839,-25.21629482,-47.92809021,30.04764304
15.6361933,-10.32760504,-21.26860428,5.781208295,-21.11958277,-25.92740221,-19.7177942,78.9458963,-25.09271675,-47.89283276,30.17181856
15.68934224,-10.114842,-21.17775565,5.67801632,-20.29392044,-25.31359871,-19.19142966,78.45452041,-24.95680729,-47.84047116,30.2922711
15.715619,-9.892141018,-21.08529177,5.577420434,-19.46953857,-24.69101923,-18.65948805,77.90258377,-24.80952523,-47.77074202,30.40645159
15.71736621,-9.659659735,-20.99099112,5.479414666,-18.64894125,-24.06266178,-18.12289011,77.28996638,-24.65207709,-47.68358424,30.51192341
15.69703862,-9.417571729,-20.89465054,5.383964435,-17.83438505,-23.43155198,-17.58245694,76.61690321,-24.4859034,-47.57909134,30.60637861
15.65713379,-9.166060175,-20.79609701,5.291004957,-17.02787182,-22.80069481,-17.03892462,75.88397721,-24.31265823,-47.45746896,30.68765926
15.60012235,-8.905312349,-20.69519847,5.200440107,-16.23114834,-22.17302781,-16.49296283,75.09210798,-24.13418237,-47.31899803,30.75378166
15.52838019,-8.635515171,-20.59187323,5.112141904,-15.44571203,-21.55137675,-15.94519619,74.24253732,-23.95247078,-47.16400363,30.80296086
15.44412565,-8.356851875,-20.4860978,5.025950808,-14.6728218,-20.93841484,-15.39622708,73.33681263,-23.76963532,-46.99282914,30.83363298
15.34936433,-8.069499879,-20.37791267,4.94167692,-13.91351301,-20.33662644,-14.84665862,72.3767695,-23.58786395,-46.80581509,30.8444731
15.24584404,-7.773629832,-20.26742611,4.85910219,-13.16861567,-19.74827578,-14.29711661,71.36451437,-23.40937745,-46.60328204,30.8344071
15.13502212,-7.469405804,-20.15481563,4.777983645,-12.43877474,-19.17538129,-13.74826922,70.30240809,-23.23638509,-46.38551685,30.80261625
15.01804645,-7.156986517,-20.04032731,4.698057619,-11.72447183,-18.61969586,-13.20084367,69.19305101,-23.07104032,-46.15276188,30.74853424
14.89575096,-6.836527501,-19.92427289,4.619044872,-11.02604735,-18.08269296,-12.65563915,68.03926952,-22.91539773,-45.90520671,30.67183653
14.76866525,-6.508184016,-19.80702487,4.540656461,-10.34372245,-17.56555881,-12.11353552,66.84410412,-22.77137241,-45.64298237,30.5724228
14.63703728,-6.172114571,-19.68900981,4.462600168,-9.677620165,-17.06919018,-11.57549757,65.61079805,-22.64070265,-45.36615807,30.45039346
14.50086717,-5.828484874,-19.57069998,4.384587286,-9.027785306,-16.59419761,-11.04257483,64.34278582,-22.52491691,-45.07474061,30.3060218
14.35994936,-5.477472063,-19.45260381,4.306339528,-8.394202725,-16.14091359,-10.515897,63.04368035,-22.42530597,-44.76867677,30.13972353
14.21392035,-5.119269042,-19.33525521,4.227595881,-7.776813651,-15.70940524,-9.996665443,61.71725733,-22.34290072,-44.44785908,29.95202555
14.06230861,-4.754088838,-19.21920236,4.148119152,-7.175529896,-15.29949093,-9.486141003,60.36743554,-22.27845643,-44.11213486,29.74353587
13.90458373,-4.38216885,-19.10499604,4.067702054,-6.590245738,-14.91076028,-8.985628823,58.99825197,-22.23244382,-43.76131881,29.51491613
13.74020213,-4.003774921,-18.99317806,3.986172603,-6.020847395,-14.54259694,-8.496460757,57.61383082,-22.20504721,-43.39520852,29.26685803
13.56864698,-3.619205168,-18.88427002,3.90339869,-5.467220066,-14.1942036,-8.019975987,56.21834615,-22.19616981,-43.01360278,29.00006451
13.38946101,-3.228793507,-18.77876275,3.819291667,-4.929252624,-13.86462856,-7.557500452,54.81597828,-22.20544589,-42.61632157,28.71523623
13.20227108,-2.832912823,-18.67710667,3.733808831,-4.406840042,-13.55279352,-7.110325611,53.41086477,-22.23225949,-42.20322723,28.41306347
13.00680448,-2.431977741,-18.57970317,3.646954719,-3.899883743,-13.25752207,-6.679687004,52.00704746,-22.27576886,-41.77424549,28.09422295
12.80289724,-2.026446981,-18.4868973,3.558781184,-3.408290029,-12.9775684,-6.266743035,50.60841728,-22.33493567,-41.32938521,27.75937905
12.5904953,-1.616825291,-18.39897165,3.4693863,-2.931966847,-12.71164591,-5.872554447,49.21865937,-22.40855794,-40.86875574,27.40918819
12.36964996,-1.203664938,-18.31614172,3.378912187,-2.470819128,-12.45845532,-5.498064941,47.84120069,-22.4953052,-40.39258048,27.04430525
12.14050881,-0.787566751,-18.23855253,3.287541859,-2.024743007,-12.21671171,-5.144083396,46.47916279,-22.59375457,-39.90120611,26.66539074
11.90330405,-0.369180656,-18.16627673,3.195495211,-1.593619244,-11.98517033,-4.811268112,45.13532196,-22.70242649,-39.39510665,26.27311766
11.6583396,0.050794362,-18.09931413,3.103024269,-1.177306237,-11.76265059,-4.500113314,43.81207874,-22.81981875,-38.87488279,25.86817737
11.40597855,0.471610974,-18.03759265,3.010407828,-0.775633102,-11.54805802,-4.210938036,42.51143832,-22.94443824,-38.34125673,25.45128417
11.14663215,0.892474981,-17.98097076,2.917945611,-0.388393333,-11.34040365,-3.943877355,41.23500258,-23.07482971,-37.79506351,25.02317846
10.88075121,1.312547677,-17.92924136,2.8259521,-0.015339536,-11.13882055,-3.698875952,39.98397436,-23.20960138,-37.2372401,24.58462911
10.60882062,1.730949156,-17.88213705,2.734750167,0.343820339,-10.94257708,-3.475684087,38.75917324,-23.34744737,-36.66881331,24.13643549
10.33135697,2.146762646,-17.83933681,2.644664634,0.689424929,-10.75108654,-3.273856215,37.56106222,-23.48716681,-36.09088787,23.67942993
10.0489092,2.559039846,-17.80047363,2.556015891,1.021859361,-10.56391301,-3.092752637,36.38978371,-23.6276797,-35.50463571,23.21448126
9.762061694,2.966807252,-17.76514319,2.469113666,1.34155303,-10.38077304,-2.93154464,35.24520323,-23.7680394,-34.91128709,22.74249979
9.471438889,3.369073374,-17.73291297,2.384251062,1.648975286,-10.2015333,-2.789223575,34.1269589,-23.90744148,-34.31212402,22.26444356
9.177710484,3.764836741,-17.70333173,2.301698969,1.944629163,-10.02620403,-2.664614195,33.03451472,-24.04522909,-33.70847589,21.78132549
8.88159594,4.153094582,-17.67593895,2.221700973,2.229043385,-9.854928661,-2.556392292,31.96721565,-24.18089457,-33.10171711,21.29422047
8.583867122,4.532852026,-17.65027404,2.144468885,2.502763021,-9.687969788,-2.46310636,30.92434266,-24.31407783,-32.49326621,20.80427136
8.285347942,4.903131701,-17.62588519,2.070178969,2.766339276,-9.525692273,-2.383202732,29.9051659,-24.4445617,-31.88458568,20.31269321
7.986910039,5.262983579,-17.60233759,1.99896896,3.020319019,-9.368544015,-2.31505345,28.90899444,-24.57226486,-31.27718181,19.82077469
7.689463781,5.611494928,-17.57922102,1.930935925,3.265234689,-9.217035276,-2.256986074,27.93522113,-24.69723271,-30.67260393,19.32987658
7.393944219,5.947800217,-17.55615665,1.86613502,3.501595164,-9.071717358,-2.207314597,26.98336145,-24.81962652,-30.07244234,18.84142675
7.101291974,6.271090833,-17.53280298,1.804579177,3.729878081,-8.933161372,-2.164370671,26.05308542,-24.93971103,-29.47832465,18.35691185
6.812429511,6.580624452,-17.50886072,1.746239746,3.950523936,-8.801937788,-2.126534352,25.14424178,-25.05784046,-28.89191034,17.87786582
6.528233655,6.875733905,-17.48407668,1.691048091,4.163932176,-8.678597334,-2.092263609,24.25687423,-25.17444314,-28.31488388,17.4058556
6.249505709,7.155835368,-17.45824648,1.638898114,4.370459366,-8.563653706,-2.060121831,23.39122917,-25.29000461,-27.74894656,16.94246475
5.976940909,7.42043571,-17.4312159,1.58964967,4.570419369,-8.457568454,-2.028802589,22.54775533,-25.40504958,-27.19580779,16.48927582
5.711099311,7.669138829,-17.40288112,1.543132754,4.764085431,-8.360738271,-1.997150907,21.72709516,-25.52012288,-26.65717602,16.04785232
5.452380437,7.901650846,-17.37318747,1.499152362,4.951693907,-8.273484785,-1.964180376,20.93006868,-25.63577009,-26.1347499,15.61972094
5.201004003,8.117784045,-17.34212714,1.457493859,5.133449336,-8.196046872,-1.929085542,20.15765026,-25.75251826,-25.63020929,15.20635473
4.956998896,8.31745946,-17.30973565,1.417928691,5.309530527,-8.128575411,-1.891249175,19.41093936,-25.87085739,-25.14520618,14.80915733
4.720202099,8.500708077,-17.27608744,1.380220273,5.480097233,-8.071130364,-1.850244214,18.69112611,-25.99122337,-24.68135459,14.42944827
4.490268533,8.667670626,-17.24129054,1.344129862,5.645297024,-8.023680012,-1.805830424,17.99945304,-26.11398269,-24.24021898,14.06844917
4.266691958,8.818595964,-17.20548074,1.309422272,5.805271932,-7.986102197,-1.757946003,17.33717433,-26.23941955,-23.82330032,13.72727061
4.048835992,8.953838103,-17.16881516,1.275871247,5.960164503,-7.958187361,-1.70669459,16.70551376,-26.36772539,-23.43201928,13.40689939
3.835973433,9.073851936,-17.13146568,1.243264373,6.110122948,-7.939643213,-1.652328322,16.10562301,-26.49899121,-23.06769642,13.10818607
3.627331255,9.179187739,-17.09361243,1.211407388,6.255305177,-7.930100816,-1.595227687,15.53854153,-26.63320253,-22.73152941,12.83183284
3.422138156,9.270484551,-17.05543747,1.180127815,6.395881596,-7.929121846,-1.53587903,15.00515921,-26.77023717,-22.42456785,12.57838186
3.219671461,9.348462532,-17.01711908,1.149277832,6.53203662,-7.936206801,-1.474850622,14.506183,-26.90986563,-22.14768657,12.34820424
3.019300362,9.413914426,-16.97882666,1.11873634,6.663968951,-7.95080389,-1.412768164,14.04210838,-27.05175402,-21.90155846,12.14148997
2.820523039,9.467696245,-16.9407166,1.088410214,6.791890664,-7.97231831,-1.350290614,13.61319626,-27.19546938,-21.68662804,11.95823926
2.62299595,9.51071733,-16.90292899,1.058234745,6.916025195,-8.000121644,-1.288087097,13.21945605,-27.34048734,-21.5030872,11.79825546
2.426554365,9.543929929,-16.86558537,1.028173313,7.03660431,-8.03356107,-1.226815574,12.860635,-27.48620183,-21.35085426,11.66114028
2.231224113,9.56831843,-16.82878748,0.998216328,7.153864174,-8.071968125,-1.167103809,12.53621412,-27.63193683,-21.22955754,11.54629141
2.03722525,9.584888395,-16.79261693,0.968379539,7.268040634,-8.114666807,-1.109533044,12.24541052,-27.77695997,-21.13852445,11.45290305
1.844969171,9.59465552,-16.75713562,0.938701776,7.379363926,-8.160980871,-1.05462466,11.98718599,-27.92049755,-21.07677681,11.37996971
1.655051478,9.598634639,-16.72238689,0.909242238,7.488052986,-8.210240237,-1.002829986,11.76026135,-28.06175083,-21.04303318,11.32629369
1.468244102,9.59782889,-16.68839714,0.880077436,7.594309644,-8.261786489,-0.954523316,11.56313618,-28.19991292,-21.03571843,11.29049638
1.28549211,9.59321915,-16.65517777,0.851297889,7.698312955,-8.314977507,-0.909998052,11.39411303,-28.33418589,-21.05298037,11.2710332
1.107924695,9.585753873,-16.62272744,0.823004676,7.800213983,-8.3691913,-0.869465814,11.25132559,-28.46379748,-21.09271267,11.26621167
0.936898892,9.576339447,-16.59103427,0.795305944,7.900131309,-8.423829158,-0.833058232,11.13276975,-28.58801685,-21.15258311,11.2742117
