Finger Velocity,Scap_X,Scap_Y,Scap_Z,Shoulder horiz abd-adduction,Shoulder flexion-extension,Shoulder internal-external rotation,elbow flexion-extension,forearm pronation-supination,wrist flexion-extension,wrist radial-ulnar deviation
0.73275357607417,-1.63794196452885,-17.629697917902,10.3908564175291,-34.4591909386898,-59.612527212831,-23.7675017330997,92.230402183986,-47.6202006939492,28.5146409030089,-52.2549184542143
0.93749826860779,-1.66655318126316,-17.6358639434959,10.3235001503638,-34.8321836330501,-59.4363034655192,-23.9587543308469,92.3269992493267,-47.4022379909473,28.2877109543068,-52.1410063392058
1.17959432435986,-1.69387182664284,-17.6442462008112,10.255285552439,-35.2253010702522,-59.2301480435768,-24.1570302504386,92.4305795771484,-47.1680631110026,28.0576907731096,-52.0233897139736
1.4541325559533,-1.71972287752323,-17.6545332038046,10.1859701872208,-35.6343060631921,-58.9927066099236,-24.3582223600097,92.5395072946352,-46.9175170451959,27.8242450860944,-51.9007876964259
1.75783248560374,-1.74392878884499,-17.6663697483328,10.1152715064223,-36.0544617837413,-58.7228362721488,-24.5578148841445,92.6518292288527,-46.6505638790346,27.5869404426938,-51.7718098075344
2.08819417402872,-1.76630515721443,-17.6793688358726,10.0428736838333,-36.4806253397823,-58.4196241769923,-24.7509756398724,92.7652755572947,-46.3672967254729,27.3452722645637,-51.6349934080351
2.44303799217465,-1.78665641776382,-17.6931244290925,9.96843550071976,-36.9073555419607,-58.0824012239659,-24.9326619073803,92.8772647691382,-46.0679419729736,27.0986892603261,-51.4888382365845
2.820268734846,-1.80477187708341,-17.7072244789651,9.89159916821448,-37.3290306890311,-57.7107500127216,-25.0977357567706,92.9849129712889,-45.7528617591254,26.8466137541484,-51.3318365743203
3.21775813988833,-1.82042233481266,-17.7212637167204,9.81199989807994,-37.7399715482513,-57.3045063837705,-25.2410838792413,93.08504759977,-45.4225546474385,26.588457174631,-51.1624982593177
3.63329044908075,-1.83335749353307,-17.7348557631603,9.72927597964029,-38.1345644627378,-56.8637542524794,-25.3577366491767,93.174225639891,-45.0776545698969,26.3236305153778,-50.979370354704
4.06454285299654,-1.84330431643419,-17.7476441524747,9.64307911320074,-38.5073797291731,-56.3888138261102,-25.4429813545274,93.2487564893164,-44.7189281705445,26.051550021167,-50.7810517604865
4.50908609874357,-1.84996645928783,-17.7593119000454,9.55308476752954,-38.853280977776,-55.8802237015651,-25.4924651949004,93.3047295986807,-44.3472707336502,25.7716387357178,-50.5662034925137
4.96439715583218,-1.85302486586629,-17.7695892743597,9.45900233811792,-39.1675221220336,-55.338717742479,-25.5022846093664,93.3380469893736,-43.9637009112285,25.4833248699391,-50.3335557036402
5.42787917059235,-1.8521395718182,-17.7782594692636,9.36058487806606,-39.4458294129194,-54.7651979927999,-25.4690586274589,93.3444606744485,-43.5693544926292,25.1860381425255,-50.0819127158469
5.89688568048611,-1.84695271399317,-17.7851619231181,9.25763816969406,-39.6844671274711,-54.1607051554484,-25.3899851156038,93.3196148913428,-43.1654774961755,24.8792052709131,-49.8101573421072
6.36874701047149,-1.83709268654873,-17.790193111125,9.150028909336,-39.8802863381929,-53.5263883136705,-25.2628798730541,93.2590928952634,-42.7534189179177,24.5622456970194,-49.5172556486481
6.84079732596809,-1.82217931653429,-17.7933047558323,9.03769178612274,-40.0307569663712,-52.8634755859321,-25.086199388745,93.1584678707685,-42.3346235446842,24.2345684815648,-49.2022630855511
7.31040116707436,-1.80182985761223,-17.7944995480926,8.92063525307603,-40.1339838961937,-52.1732472877136,-24.8590486592396,93.0133573097691,-41.910625312797,23.8955711126603,-48.8643326004556
7.77497853716565,-1.77566553931139,-17.7938246236445,8.79894583323169,-40.1887083385332,-51.4570129370183,-24.5811758187817,92.8194799864193,-41.4830417379124,23.5446407368598,-48.5027249455831
8.23202781826062,-1.74331837220301,-17.7913631837155,8.67279088494306,-40.194295908503,-50.7160930975521,-24.2529554850047,92.5727144424999,-41.0535699088278,23.1811580412673,-48.1168209317853
8.67914596255496,-1.70443789584204,-17.7872247728337,8.54241985611285,-40.1507130355533,-49.951806630116,-23.8753627024786,92.2691576963088,-40.6239843843785,22.8045037637132,-47.7061349645406
9.11404557725173,-1.65869756327144,-17.7815348161951,8.40816415618014,-40.0584933792966,-49.1654634723801,-23.4499392089666,91.9051827290703,-40.1961370430075,22.4140676754896,-47.2703289126347
9.53456868315702,-1.6058004842152,-17.7744240520695,8.27043583770008,-39.9186959077975,-48.3583626569181,-22.978753518041,91.4774932185611,-39.7719585382317,22.0092598717333,-46.8092252529178
9.93869708650586,-1.54548429811435,-17.7660184684438,8.12972529314236,-39.7328562353669,-47.5317949502644,-22.4643560624244,90.9831740068344,-39.3534605706297,21.5895242201279,-46.322818482036
10.3245594552401,-1.47752501004943,-17.756430283547,7.98659814035885,-39.5029327331024,-46.6870492566922,-21.9097304026657,90.4197359128409,-38.9427377712642,21.1543537758869,-45.8112839489437
10.6904353308725,-1.40173968555608,-17.7457504167046,7.84169140340127,-39.2312488326119,-45.8254217688536,-21.3182412902645,89.7851537177588,-38.5419676777793,20.703307896045,-45.2749835229808
11.0347564297301,-1.31798795716842,-17.7340427909849,7.69570900956538,-38.9204328565379,-44.9482267594952,-20.6935802076598,89.0778964409156,-38.1534071366895,20.2360307591046,-44.7144678597367
11.3561056872959,-1.22617234697704,-17.72134069795,7.5494165384874,-38.5733566396007,-44.0568078947631,-20.039708917188,88.2969493635141,-37.7793835184003,19.752271029199,-44.1304754116039
11.6532145716702,-1.12623745925508,-17.7076453413989,7.4036350966036,-38.193074154443,-43.152549003759,-19.3608015470066,87.4418276165384,-37.4222793851304,19.2519024184594,-43.5239286630376
11.9249592330687,-1.01816814535365,-17.6929265659482,7.25923416824094,-37.7827613246224,-42.2368833443194,-18.6611858098583,86.5125814988464,-37.0845096782108,18.7349448059892,-42.8959282637014
12.1703560636054,-0.901986784976726,-17.6771256744522,7.11712331889067,-37.3456581819171,-41.3113005411092,-17.9452840569958,85.5097940083658,-36.7684910417034,18.2015853420454,-42.2477457378884
12.3885572151052,-0.777749858279074,-17.6601601523383,6.97824268480819,-36.8850144876957,-40.3773505288059,-17.2175549698579,84.4345713342811,-36.4766035118122,17.6521986784386,-41.5808152827599
12.5788465641991,-0.645543999349455,-17.6419300489686,6.84355225131096,-36.4040398690422,-39.4366440164531,-16.4824367441699,83.2885272531822,-36.2111454109919,17.087365252411,-40.8967249094171
12.7406365273917,-0.505481723727496,-17.6223257137869,6.71401997967312,-35.9058594086499,-38.4908492074212,-15.7442925997456,82.0737624840011,-35.9742828354905,16.5078864939571,-40.1972069274497
12.8734660199356,-0.357697014042168,-17.6012365456226,6.59060889011284,-35.3934754726366,-37.5416847537645,-15.0073593571222,80.7928400791596,-35.7679955791832,15.9147959177686,-39.4841275888206
12.9769997284898,-0.202340936628887,-17.5785603852517,6.47426326938832,-34.8697363688202,-36.5909091651704,-14.2756996963436,79.4487578615926,-35.594021683239,15.3093652479579,-38.75947560495
13.0510287369033,-0.0395774569713463,-17.5542131622263,6.36589427011123,-34.3373122068616,-35.6403070992614,-13.5531586061707,78.0449187613302,-35.4538030404201,14.6931049601749,-38.0253492273395
13.0954724156182,0.13042037621856,-17.528138397755,6.26636529945177,-33.7986780832478,-34.6916731147685,-12.8433244679946,76.5850996699132,-35.3484346103101,14.0677588843906,-37.2839416218391
13.1103813663769,0.307473710710582,-17.5003161728991,6.17647771583572,-33.256104439633,-33.7467935722887,-12.1494951739877,75.0734191373183,-35.2786198070407,13.4352927661492,-36.5375243260482
13.0959411124487,0.491400487319821,-17.4707712050468,6.09695741477723,-32.7116541546896,-32.8074274260129,-11.4746496125834,73.5143039204229,-35.2446344963284,12.7978768980431,-35.7884286264778
13.0524761463219,0.682017249153904,-17.4395797372386,6.02844286660337,-32.1671856545301,-31.8752866685998,-10.821424749686,71.9124541013443,-35.2463017829826,12.1578630825454,-35.0390247620391
12.9804538957546,0.87914011456506,-17.4068750235294,5.97147508008728,-31.6243610986871,-30.9520171690407,-10.1920984060033,70.2728062760119,-35.2829793855249,11.5177562886425,-34.2916990132052
12.8804881472531,1.0825849186996,-17.3728512726322,5.92648983471849,-31.084658544485,-30.0391805783493,-9.58857770506446,68.6004942068136,-35.3535608847236,10.8801814695279,-33.5488289726765
12.7533414733785,1.29216657250335,-17.33776597894,5.89381237804519,-30.5493869227541,-29.138237880018,-9.01239306099263,66.9008063628033,-35.4564915107856,10.2478461638222,-32.8127575420952
12.5999262448151,1.50769771960986,-17.3019406194436,5.87365464206185,-30.0197026672429,-28.250535050956,-8.46469749528683,65.1791399447013,-35.5897984277427,9.62349971306491,-32.0857663753974
12.4213038662382,1.72898679137434,-17.265759728682,5.8661149043482,-29.4966269188419,-27.3772911863884,-7.94627101255206,63.4409512981113,-35.7511347246174,9.00989015992434,-31.3700495663593
12.2186819517987,1.95583557071271,-17.2296683875645,5.87117971253461,-28.9810623633653,-26.5195893296157,-7.45752971986593,61.6917030244042,-35.9378355867533,8.40972010673809,-30.6676884029991
11.9934092457483,2.18803637950553,-17.1941681815381,5.88872781111176,-28.4738089428931,-25.6783701388233,-6.99853934757494,59.9368085556417,-36.1469844602814,7.82560299179223,-29.9806280398004
11.7469681901537,2.42536900481362,-17.159811701476,5.91853576078755,-27.9755778867565,-24.8544284338422,-6.56903283307215,58.1815754147829,-36.3754864855344,7.26002136693853,-29.3106569678345
11.4809651386193,2.66759747716372,-17.1271956760738,5.96028491962133,-27.4870037209989,-24.0484126086527,-6.16843166001307,56.4311487849777,-36.6201460867242,6.71528879483533,-28.6593901395766
11.1971183066033,2.91446680905028,-17.0969528368669,6.01356945548406,-27.0086541141589,-23.2608268630204,-5.79587067108199,54.6904573073541,-36.8777453921149,6.19351684862343,-28.0282564693034
10.8972436301677,3.16569979170179,-17.0697426281249,6.07790507418955,-26.5410375822733,-22.4920361768492,-5.45022606004358,52.9641631610159,-37.1451201589264,5.69658833995899,-27.4184911611323
10.5832387716553,3.42099393178392,-17.0462408867234,6.15273817007045,-26.0846091989171,-21.7422739087767,-5.1301461998009,51.2566184225237,-37.4192301101187,5.22613739229394,-26.8311329687727
10.2570655598653,3.68001858753997,-17.0271286312776,6.23745512960604,-25.639774541998,-21.0116518484159,-4.83408490385368,49.5718294598899,-37.697221029109,4.78353646726149,-26.2670261564779
9.92073118211806,3.94241233705503,-17.0130801098227,6.33139154086787,-25.2068921626134,-20.3001725014903,-4.56033666790134,47.9134307162785,-37.9764765413813,4.36989004229088,-25.7268266630685
9.57626845592153,4.20778058113345,-17.0047502563778,6.43384108140806,-24.7862748795883,-19.607743352227,-4.30707339697242,46.2846687290505,-38.2546581819141,3.98603433603277,-25.2110117736739
9.22571550000531,4.47569335431379,-17.0027617042886,6.54406387382732,-24.3781901854201,-18.9341928330526,-4.07238208094812,44.6883966762868,-38.5297330663617,3.63254226480926,-24.7198924738215
8.87109510100732,4.74568330066941,-17.0076915148413,6.6612941139249,-23.9828600098377,-18.2792877243839,-3.85430282515551,43.1270792091692,-38.7999892072614,3.3097326727471,-24.2536275984894
8.51439403724359,5.01724377891796,-17.020057818885,6.78474680200862,-23.6004600529578,-17.6427516784332,-3.65086656901488,41.6028068561563,-39.0640391786122,3.01768279956706,-23.8122388852247
8.15754258029843,5.28982709873553,-17.0403066386092,6.91362345686754,-23.2311188899015,-17.0242844903909,-3.46013174894183,40.1173188934604,-39.3208133703419,2.75624292168388,-23.395626075026
7.80239435532703,5.56284294919482,-17.0687992402388,7.04711676570291,-22.8749170581855,-16.4235816375701,-3.28021911042115,38.6720332738548,-39.5695444535181,2.52505210333555,-23.0035812558227
7.45070670952842,5.83565714498404,-17.1058004400135,7.18441420808818,-22.5318863461821,-15.8403535066034,-3.10934387243671,37.2680819938075,-39.8097448897253,2.32355400617281,-22.6358017020524
7.10412172317945,6.10759087033447,-17.1514683213315,7.32470076826849,-22.2020094855504,-15.2743436657041,-2.9458444986789,35.9063501534634,-40.0411793721892,2.15101173723996,-22.2919005423338
6.76414800655199,6.37792063501057,-17.2058458116044,7.46716090692825,-21.8852204112094,-14.7253455254293,-2.78820742028598,34.5875169169619,-40.2638340020204,2.00652080401357,-21.9714147091615
6.43214346524653,6.64587917410859,-17.2688545282271,7.61098000861311,-21.581405206861,-14.1932167477468,-2.63508717019279,33.3120966040725,-40.4778838155103,1.8890194355944,-21.6738098077361
6.10929928949337,6.91065753692589,-17.3402912658915,7.75534557674537,-21.2904038247499,-13.6778907722738,-2.48532152652014,32.0804782353062,-40.6836600391701,1.79729584745667,-21.3984817889107
5.79662552884277,7.17140862755998,-17.4198274782235,7.89944852677963,-21.0120126616165,-13.1793848161703,-2.33794142605253,30.8929620088831,-40.8816182064559,1.72999245421712,-21.1447556059555
5.49493874505281,7.42725246667603,-17.5070120756238,8.04248500456452,-20.7459880690764,-12.6978037131531,-2.19217559701798,29.749791396306,-41.0723080402392,1.68560750266777,-20.9118813365463
5.20485237751683,7.67728341110052,-17.6012777645582,8.18365918147641,-20.4920508468632,-12.2333390584215,-2.0474500590836,28.6511797836965,-41.2563457746761,1.66249503176551,-20.6990285214887
4.92677058310335,7.92057947775205,-17.7019509666552,8.32218741792915,-20.2498916989875,-11.786263354107,-1.90338282847138,27.59733084606,-41.4343893491904,1.65886443042067,-20.5052796983617
4.66088639394492,8.15621377411493,-17.8082650972699,8.45730404514019,-20.0191775344182,-11.3569191845778,-1.75977433152908,26.5884521210378,-41.6071166683543,1.67278113508261,-20.3296242878061
4.40718503665159,8.38326785725518,-17.919376695232,8.58826881601449,-19.7995583832294,-10.9457038432281,-1.61659415915681,25.6247615489781,-41.7752069084879,1.7021701251912,-20.1709540872279
4.16545314157748,8.60084666012314,-18.0343836403051,8.71437586024616,-19.590674600303,-10.5530502085627,-1.47396488014232,24.7064870614025,-41.9393246833875,1.74482376942584,-20.0280615948045
3.93529432009644,8.80809447974815,-18.1523445440839,8.83496379929935,-19.3921639695525,-10.1794049378069,-1.33214367568493,23.8338596144673,-42.1001067640146,1.79841527721423,-19.899642231317
3.71615120197987,9.00421144394776,-18.2722983912114,8.94942657121952,-19.2036683177511,-9.82520515560556,-1.19150256838705,23.0071003523291,-42.2581509728026,1.86051861909047,-19.7843012958252
3.50733353302624,9.18846985597546,-18.3932836155091,9.05722447877988,-19.0248392895412,-9.49085478251914,-1.05250800034783,22.2264028211393,-42.4140068288566,1.92863535241785,-19.6805662053962
3.3080513930534,9.36022983620859,-18.5143559603782,9.15789497533,-18.8553430025499,-9.1767015383723,-0.915700462153849,21.4919113293787,-42.5681675046859,2.00022832559751,-19.5869042243891
3.11745208492976,9.51895371764204,-18.6346046460107,9.25106271619164,-18.6948633788781,-8.88301552461366,-0.781674784485931,20.8036966756178,-42.7210626817888,2.07276174759816,-19.5017454984104
2.93465884990675,9.66421870059781,-18.7531665226384,9.33644842620443,-18.5431040335005,-8.60997015978044,-0.651061582793209,20.1617305453593,-42.87305196273,2.14374662505129,-19.4235107975532
2.75880935164276,9.79572733171331,-18.8692380202604,9.41387617389858,-18.3997886923042,-8.35762611181506,-0.524510203714917,19.5658598995656,-43.0244185917447,2.21079010066049,-19.350642965028
2.58909187768283,9.91331544494979,-18.9820848111909,9.48327870383704,-18.2646602100836,-8.12591873363781,-0.402673369618597,19.0157826291726,-43.1753633471398,2.27164682583193,-19.281640711688
2.42477742931808,10.0169572882,-19.0910491861849,9.54470055619407,-18.1374783546342,-7.91464936163946,-0.286193567079348,18.5110256481475,-43.325998617735,2.32427025149524,-19.2150931711978
2.26524626798666,10.1067676548397,-19.1955552113318,9.59829878910871,-18.018016607751,-7.72348068308272,-0.175691092783734,18.0509264647102,-43.4763428744621,2.36686162520677,-19.1497135539022
2.11000799334344,10.1830009405338,-19.2951117851271,9.64434121049844,-17.9060582976276,-7.55193622244567,-0.0717535696071138,17.6346191115385,-43.6263159686224,2.39791444710212,-19.0843702521994
1.95871477219607,10.2460471474492,-19.3893137575597,9.68320211916366,-17.8013924117287,-7.39940384431441,0.025073318955522,17.2610251270773,-43.7757358768397,2.41625214536561,-19.0181138298046
1.81116785512275,10.2964249567081,-19.477841307897,9.71535564541184,-17.7038094409761,-7.2651430287807,0.114294155913368,16.9288500658365,-43.9243176216023,2.42105689511947,-18.9501985183312
1.66731796529468,10.3347720811972,-19.5604578040618,9.74136686221664,-17.6130975773069,-7.14829555209052,0.195471450169541,16.6365857887611,-44.0716750984029,2.411887892489,-18.8800971647741
1.52726050268868,10.3618331909064,-19.6370063832558,9.76188090178632,-17.5290395341187,-7.04789910539966,0.268232855046588,16.3825185556246,-44.2173264333422,2.38868794616472,-18.8075089584107
1.3912267800423,10.3784457690245,-19.7074055024568,9.77761035378764,-17.4514101899423,-6.96290330769883,0.332278102614294,16.1647427128177,-44.3607032941268,2.35177787775934,-18.7323596461929
1.25957271540237,10.3855243075056,-19.7716437098401,9.78932124076404,-17.3799751744212,-6.8921875122431,0.387385720234948,15.981179543569,-44.5011643022744,2.3018389015964,-18.6547943074531
1.13276658031395,10.3840432856504,-19.8297738813468,9.79781787254328,-17.3144904263808,-6.83457976823241,0.433419484509099,15.829600632932,-44.6380123627455,2.23988385519734,-18.5751631083788
1.01137757097121,10.3750193960363,-19.8819071463573,9.80392688796266,-17.2547026641943,-6.78887628386415,0.470334434904597,15.7076549157187,-44.7705153605462,2.16721878952144,-18.4940007766859
0.896067134896923,10.3594934908914,-19.9282066932292,9.80848080697234,-17.2003506298405,-6.7538607468558,0.49818212703667,15.6128984431239,-44.8979293068394,2.08539690332341,-18.412000792452
0.787585066016005,10.3385127191333,-19.9688816058485,9.81230143656476,-17.1511669101438,-6.72832289585605,0.517114682123845,15.5428258367341,-45.0195227017952,1.99616706773383,-18.3299854603336
0.686772055169599,10.3131133080898,-20.0041808433068,9.8161834917886,-17.1068801082841,-6.71107580093878,0.52738711821319,15.4949023989108,-45.1346006773063,1.90141924344707,-18.2488731123108
