Finger Velocity,Scap_X,Scap_Y,Scap_Z,Shoulder horiz abd-adduction,Shoulder flexion-extension,Shoulder internal-external rotation,elbow flexion-extension,forearm pronation-supination,wrist flexion-extension,wrist radial-ulnar deviation
1.50688948600152,-3.39448711683387,-15.008109507634,11.3529985640448,-38.3872654598211,-59.3051071037202,-30.1407184794656,89.8357797821175,-47.576800853403,35.4532397319333,-60.9925391608237
1.91977565100031,-3.40542301930298,-15.0430826482091,11.3181645718449,-38.7826556143445,-58.9908820723702,-30.2779467352483,90.0373230371419,-47.080204918848,35.0532575503159,-60.6997145877944
2.41995941095898,-3.41654792264882,-15.0759789779447,11.2730403811883,-39.1771077469775,-58.6633436637698,-30.3929127609628,90.277125511354,-46.5353406483987,34.5809308313034,-60.3168742623942
2.99639629201325,-3.42797301326909,-15.1066284083309,11.2167380312444,-39.5657994032112,-58.3217394173178,-30.4806280744053,90.5568702339671,-45.9385379990961,34.0429912837874,-59.8489883035588
3.64172600734802,-3.43980627420052,-15.1348749478657,11.148380604838,-39.9437004931657,-57.9652545898159,-30.5361735477431,90.87790846942,-45.2861331253433,33.4468393703035,-59.3021069083617
4.35048482741163,-3.45214712851951,-15.160577419985,11.0671081005932,-40.3056374014977,-57.5930249795372,-30.5547946850297,91.2412379579619,-44.5745142112788,32.8002124544052,-58.6830603076022
5.1180040569756,-3.46508138641642,-15.1836099446982,10.972083712813,-40.6463631067424,-57.2041496322136,-30.531996981864,91.6474883906971,-43.8001723749709,32.1108790530883,-57.9991700072773
5.93980465684424,-3.47867674882297,-15.2038620875877,10.862500693662,-40.9606322991775,-56.797702719819,-30.4636386929924,92.0969139382023,-42.9597585852379,31.3863727496664,-57.2579847671334
6.81127555240814,-3.49297909080958,-15.2212385863184,10.7375899769528,-41.2432802772915,-56.3727439549317,-30.3460182927966,92.5893922605055,-42.0501475255894,30.6337742657386,-56.4670503468029
7.72750905735921,-3.50800969881929,-15.2356585931745,10.5966287275361,-41.4893042382186,-55.9283270109644,-30.1759539868656,93.1244291105419,-41.0685091832689,29.8595454554459,-55.6337178754688
8.68322577401268,-3.52376356997454,-15.2470544150647,10.4389499345161,-41.693945455248,-55.4635055787149,-29.9508528163482,93.7011674411226,-40.0123886225846,29.0694149116454,-54.7649921145084
9.67275308390754,-3.54020880795922,-15.25536977476,10.2639530855369,-41.8527707541749,-54.9773369220869,-29.6687671932412,94.3183998616146,-38.879793910543,28.268311663124,-53.8674180916081
10.6900376187261,-3.55728707876858,-15.2605576487706,10.0711158542855,-41.9617516558373,-54.4688830988068,-29.3284371190947,94.9745833659927,-37.6692914836019,27.4603411847649,-52.9470026721815
11.728680453867,-3.57491502690759,-15.2625777605229,9.86000662489171,-42.0173395321401,-53.9372103547165,-28.9293168556444,95.6678554468794,-36.3801073602585,26.6487966080851,-52.0091665521313
12.7819881291024,-3.59298649903151,-15.2613938307387,9.63029758014709,-42.016535107535,-53.3813875354326,-28.4715853824315,96.3960509849736,-35.0122315102835,25.8361975023434,-51.0587217858399
13.8430349313427,-3.61137537796669,-15.2569707125302,9.38177799875156,-41.9569506110722,-52.8004846410105,-27.9561405250314,97.1567196205661,-33.5665214131719,25.0243487623898,-50.0998701726533
14.9047331512512,-3.62993879933922,-15.2492715592098,9.11436733804871,-41.836862843398,-52.1935728399262,-27.3845771134299,97.9471436364238,-32.0447994557991,24.2144128437269,-49.1362184781191
15.9599087458793,-3.64852051059641,-15.2382551782401,8.82812762326756,-41.6552553857981,-51.559727326688,-26.7591499116032,98.7643566744647,-30.4499374893607,23.4069896751244,-48.1708074008648
17.0013802634425,-3.6669541398272,-15.2238737130081,8.52327462739869,-41.4118481816269,-50.8980343289715,-26.0827223582463,99.6051638409926,-28.7859208243338,22.6021998506016,-47.2061521849757
18.022039153076,-3.68506616629474,-15.2060707756357,8.20018731624431,-41.1071128104712,-50.2076033312776,-25.3587024045435,100.46616390106,-27.0578834714506,21.7997678970565,-46.2442935475328
19.0149297682744,-3.70267841915532,-15.1847801458662,7.85941505973857,-40.7422719921423,-49.487585178871,-24.5909669553683,101.343774301397,-25.2721068044525,20.9991033451051,-45.2868579467987
19.9733275203321,-3.71960996990349,-15.1599251596183,7.50168217531398,-40.3192822288255,-48.737196177383,-23.7837766373559,102.234259681567,-23.43597521444,20.1993780000551,-44.3351261494731
20.8908137713065,-3.73567832827527,-15.1314189205415,7.12788946184564,-39.8407990345272,-47.9557476693981,-22.9416828579738,103.133764341572,-21.557884798577,19.399598355101,-43.3901087055223
21.7613461879422,-3.75069990594221,-15.0991654529603,6.73911248613716,-39.3101249028497,-47.1426799374972,-22.0694294111452,104.038348857433,-19.6471045575868,18.5986726354862,-42.4526264685053
22.5793234153833,-3.76448978008694,-15.0630618620207,6.33659648451164,-38.7311409801077,-46.2975987333024,-21.1718512295726,104.944030703667,-17.7135936548778,17.7954725394466,-41.5233938224999
23.3396430752582,-3.77686086458515,-15.0230014857065,5.92174783847244,-38.1082242614059,-45.4203123119895,-20.253773246255,105.846828369575,-15.7677825222038,16.9888903159817,-40.6031018872481
24.0377522473157,-3.78762266704108,-14.9788779356285,5.49612218352494,-37.4461529254435,-44.5108665840398,-19.3199126427202,106.742808051987,-13.8203293683617,16.1778923301897,-39.6924987528962
24.6696897561646,-3.79657985997426,-14.9305898502859,5.06140931664066,-36.750003091384,-43.5695759008225,-18.3747879449309,107.628131587952,-11.8818663416261,15.3615705683257,-38.7924637493864
25.232119752781,-3.80353091417361,-14.8780461368263,4.61941516870915,-36.0250407530713,-42.5970470992413,-17.4226383951952,108.499103904487,-9.96275074402462,14.5391933931304,-37.9040727985611
25.7223562516644,-3.80826703295403,-14.8211714521222,4.1720411896758,-35.2766128787792,-41.5941947679409,-16.4673567340757,109.352217983568,-8.07283609498893,13.7102561387686,-37.0286519706778
26.1383784558877,-3.81057159808549,-14.7599116591485,3.72126155440443,-34.5100416431704,-40.5622462504086,-15.5124379814162,110.184195243108,-6.22127559934636,12.8745309743503,-36.1678165319155
26.4788368706983,-3.81022030090556,-14.694238983278,3.26909864310084,-33.7305254883718,-39.5027356090779,-14.5609460497989,110.99201936148,-4.41636706601397,12.0321142146968,-35.3234931477238
26.743050368704,-3.80698208642892,-14.6241565925194,2.81759728426593,-32.9430502176103,-38.4174865541071,-13.6154990990744,111.772961931771,-2.66544411544348,11.1834682556886,-34.497923563443
26.9309945230853,-3.80062098004714,-14.5497023489435,2.3687982678749,-32.1523126563304,-37.308585109537,-12.6782735008503,112.524598901751,-0.974814251215919,10.3294547634165,-33.6936489823654
27.0432816669897,-3.79089879629368,-14.4709515293564,1.9247116369984,-31.3626586392774,-36.1783434844905,-11.75102520359,113.244817484484,0.650259362124711,9.47135573541275,-32.9134754044414
27.0811332648848,-3.77757865661817,-14.3880183826159,1.48729024676223,-30.5780362682597,-35.0292571829006,-10.8351262671354,113.931814017499,2.20553838243619,8.61087959308264,-32.160421271383
27.0463452931184,-3.76042918161602,-14.3010564637969,1.05840405095108,-29.8019646011861,-33.8639577683141,-9.93161347669101,114.584083978227,3.68775972917329,7.750150509861,-31.4376497894975
26.9412474206234,-3.73922918241138,-14.2102577480539,0.63981555470673,-29.0375172355796,-32.6851638649888,-9.04124535150558,115.200405911521,5.09456435144432,6.89168056634484,-30.7483891674685
26.768656855399,-3.71377265934833,-14.1158505725076,0.233156862668685,-28.2873196741951,-31.495632922468,-8.16456360051446,115.779821325187,6.42441248315954,6.03832576145713,-30.0958446175408
26.5318277773523,-3.68387392356143,-14.0180964846571,-0.160091249773159,-27.5535589191875,-30.2981160249686,-7.30195516813435,116.32161265965,7.67649266234626,5.19322811560138,-29.4831062819201
26.2343973130017,-3.6493726836044,-13.9172861003516,-0.538617816475024,-26.8380034359181,-29.0953176266109,-6.45371142686658,116.825281279045,8.85063049809665,4.35974695181616,-28.9130572825865
25.8803290225977,-3.61013897245444,-13.8137341044463,-0.901297300280497,-26.1420314536288,-27.8898615854136,-5.62008171600053,117.290527117385,9.94720169657891,3.54138295012081,-28.3882859071451
25.4738548660231,-3.56607781537685,-13.707773565152,-1.24720198298507,-25.4666655173802,-26.6842643128663,-4.80131917163051,117.717231198715,10.9670523895125,2.74169879062681,-27.9110055899177
25.0194165914442,-3.51713355322615,-13.5997497673356,-1.57561083079324,-24.8126112579014,-25.4809153136872,-3.99771753891534,118.105441787833,11.9114284715777,1.96424016247264,-27.4829858565992
24.5216074515302,-3.46329374813821,-13.4900137857758,-1.88601463624827,-24.1802984823984,-24.2820649090664,-3.20963833944028,118.455364467095,12.7819145309784,1.21246062913479,-27.1054967799799
23.9851150979595,-3.4045926153588,-13.3789160134315,-2.17811734095965,-23.569922888108,-23.0898185436455,-2.43752834442302,118.767356014139,13.5803820944557,0.489653320136641,-26.7792687554187
23.4146664379855,-3.34111393806087,-13.2667998428563,-2.45183355126076,-22.9814869451642,-21.9061367858278,-1.68192775613703,119.0419216051,14.308946307136,-0.201108320489721,-26.5044685852842
22.814975159434,-3.27299341795374,-13.1539956839454,-2.70728237211551,-22.4148387710159,-20.7328399482739,-0.943469825126894,119.279714608434,14.9699297977131,-0.857019460952131,-26.2806920249704
22.1906925451916,-3.2004203895642,-13.0408154924288,-2.94477780057425,-21.8697081025982,-19.571616175684,-0.222872844295113,119.481538070791,15.5658322972301,-1.47558236836089,-26.1069721805382
21.5463621077008,-3.12363879035134,-12.9275479751831,-3.1648160289472,-21.3457387413845,-18.4240318520538,0.479074412846305,119.648346917861,16.099304547528,-2.0546355025061,-25.9818025631413
20.8863784808835,-3.04294724970504,-12.8144546208945,-3.36806009043647,-20.8425170893182,-17.2915432434371,1.16153266710291,119.781249884599,16.5731251273141,-2.59237513348777,-25.9031732552347
20.2149509138929,-2.95869815183853,-12.7017666723788,-3.55532231872799,-20.3595966085773,-16.1755083929739,1.82363632158126,119.881510240038,16.9901790202321,-3.08737175155371,-25.8686184919694
19.5360716205501,-2.87129554374056,-12.5896831129045,-3.727545089779,-19.8965182208728,-15.0771984120039,2.46452061931055,119.950544475923,17.3534370238072,-3.53858335867286,-25.8752739099429
18.8534891524036,-2.78119179179194,-12.4783696912973,-3.88578028808188,-19.452826806055,-13.9978074605682,3.08335051812516,119.989918280851,17.6659354072158,-3.94536717671937,-25.919941679718
18.1706868837559,-2.68888292927625,-12.3679589658433,-4.0311679083743,-19.0280840647868,-12.938460877129,3.67935006879677,120.001339315126,17.9307555175353,-4.30749058519301,-25.9991616854483
17.4908666249442,-2.59490267783216,-12.2585513055382,-4.16491417186963,-18.6218780820964,-11.9002210918095,4.25183115994777,119.98664652225,18.1510032712312,-4.6251413829426,-26.1092868433154
16.8169373162494,-2.49981517177085,-12.1502167452868,-4.28826950272167,-18.2338299732078,-10.8840911299654,4.80022059206403,119.947795938751,18.3297886416213,-4.89893684792562,-26.2465605633728
16.1515086989913,-2.40420646913242,-12.0429975477485,-4.40250667788155,-17.8635980098472,-9.89101567449506,5.32408454961551,119.886843167536,18.4702053756432,-5.12993058139197,-26.4071942724024
15.4968898119374,-2.30867499707304,-11.9369112844193,-4.50889943656885,-17.5108796096231,-8.9218797979345,5.82314965019351,119.805922836951,18.5753112548146,-5.31961576920869,-26.5874428682903
14.8550921187805,-2.2138211464284,-11.8319542221625,-4.60870181647364,-17.1754115217632,-7.97750559283822,6.29731986228848,119.707225469621,18.6481092515861,-5.4699232616608,-26.7836760119751
14.2278370342594,-2.1202362932814,-11.7281047948324,-4.70312847088881,-16.8569684698722,-7.05864701889807,6.74668869983068,119.592972244774,18.6915299186045,-5.58321277191919,-26.992443300414
13.6165675802911,-2.02849157613093,-11.6253269516213,-4.79333621175854,-16.5553604371581,-6.16598334937888,7.17154622686798,119.465388179033,18.7084152993953,-5.66225556906856,-27.2105315993884
13.0224638668918,-1.93912678967998,-11.5235732005305,-4.88040701731232,-16.2704287208477,-5.3001116397438,7.57238054948163,119.326674292535,18.7015045875295,-5.71020734826509,-27.4350131354294
12.4464620534123,-1.85263976655772,-11.4227872059113,-4.96533274082471,-16.0020408494483,-4.46153865727799,7.94987364233577,119.178979374555,18.6734216961757,-5.73057049967352,-27.6632833323418
11.8892764018211,-1.76947660445557,-11.3229058524594,-5.04900176042081,-15.7500844510075,-3.65067270201877,8.3048915527186,119.024372006745,18.6266648302152,-5.72714569406402,-27.8930877961841
11.3514239840696,-1.69002305921055,-11.2238607470193,-5.13218781462865,-15.5144601810608,-2.86781572096301,8.6384692304454,118.864813528531,18.5635980822113,-5.70397344693734,-28.1225382642582
10.8332515493628,-1.61459737056433,-11.1255791808829,-5.21554126142424,-15.2950738591395,-2.11315607729662,8.95179042232505,118.702132629047,18.4864450066074,-5.6652670289112,-28.350117723932
10.3349639944971,-1.54344472609887,-11.0279846085153,-5.29958296482897,-15.0918280104546,-1.38676229225204,9.24616322389567,118.538002222454,18.397284063341,-5.61533870453164,-28.5746752891561
9.85665381201325,-1.47673350668834,-10.9309967130448,-5.38470095024859,-14.9046130513565,-0.688578037041898,9.52299199687828,118.373919213255,18.2980457555033,-5.55852175275667,-28.7954117964863
9.39833081784779,-1.4145533943429,-10.8345311314936,-5.4711498923875,-14.7332983848196,-0.0184186210395265,9.78374645230549,118.211187691374,18.1905112065591,-5.49909098900824,-29.0118574068229
8.95995138373316,-1.35691535907863,-10.7384989118101,-5.55905342666486,-14.5777236844989,0.624030805172324,10.0299287753338,118.050906014555,18.0763118320864,-5.44118453751651,-29.2238427156918
8.54144632117927,-1.30375347698341,-10.6428057738775,-5.64840921347145,-14.4376906474133,1.23921514947048,10.2630397202098,117.893958137103,17.9569296780816,-5.38872942022558,-29.4314649524731
8.14274648519567,-1.25492847226437,-10.5473512492419,-5.73909662795806,-14.3129554902529,1.82770724837638,10.4845446219536,117.741009432462,17.8336979481996,-5.3453731964598,-29.6350507994008
7.76380508984145,-1.21023282830477,-10.4520277789889,-5.83088688705291,-14.2032224530155,2.39020363296918,10.695840259229,117.592507143818,17.7078012421074,-5.31442345647123,-29.8351172238499
7.40461565985481,-1.16939728176181,-10.356719853241,-5.92345535511339,-14.1081385548113,2.9275181718339,10.8982234769044,117.448685491709,17.5802750819513,-5.29879647580379,-30.0323315353913
7.0652244939839,-1.13209850070661,-10.2613032729749,-6.01639569169643,-14.0272898191965,3.44057362355847,11.092862452748,117.30957537129,17.4520044146682,-5.30097581616412,-30.2274716825332
6.74573650594675,-1.09796774782993,-10.1656445991229,-6.10923542991525,-13.9601991478061,3.93039117598097,11.2807714797514,117.175018476591,17.323720939194,-5.32298116625953,-30.421387606042
6.44631337029752,-1.06660033278099,-10.0696008258587,-6.20145251991699,-13.9063259685375,4.39807809079152,11.4627901310139,117.044685580468,17.1959993032481,-5.36634730596304,-30.6149642730248
6.16716307963626,-1.03756565446366,-9.97301928335514,-6.29249235490502,-13.86506772037,4.8448136238779,11.6395676574416,116.918098561484,17.0692524218776,-5.43211278011361,-30.8090868439628
5.90852037621554,-1.01041762266184,-9.87573774906984,-6.3817848165865,-13.8357631676995,5.27183346695782,11.8115534077966,116.794655599647,16.9437263686986,-5.52081768346806,-31.0046082958828
5.67061811791402,-0.984705235346373,-9.77758472700969,-6.46876091369606,-13.8176974646454,5.68041304994159,11.9789939270266,116.673658782631,16.8194954597281,-5.63250986319428,-31.2023197518426
5.4536505203909,-0.959983082622572,-9.67837983799593,-6.55286861747686,-13.8101088096229,6.07185013574527,12.1419371643969,116.554343207909,16.6964582632591,-5.76675881150829,-31.4029237453622
5.25773037625872,-0.935821554721209,-9.57793425125596,-6.63358751434195,-13.8121964452865,6.44744720464345,12.3002439049299,116.435906569256,16.5743353045715,-5.92267652256867,-31.607010661486
5.08284368752826,-0.911816547124524,-9.47605108469411,-6.71044191384812,-13.8231296866158,6.80849413809384,12.4536061429076,116.317538208383,16.4526691792953,-6.09894460490509,-31.8150386221042
4.92880643585569,-0.887598476507417,-9.37252571097122,-6.78301209062032,-13.842057618199,7.15625165670498,12.6015716770042,116.198446707362,16.3308276430131,-6.2938469613119,-32.0273171003403
4.79522911855319,-0.862840445016416,-9.26714592466019,-6.85094340813428,-13.8681190903812,7.49193585574167,12.7435737658137,116.077885273198,16.2080100216266,-6.50530736112728,-32.2439945377683
4.68149481684087,-0.837265416726619,-9.1596919466807,-6.91395316176907,-13.9004526506079,7.81670405627857,12.878964302161,115.955174369311,16.0832570261261,-6.73093122205561,-32.4650501833678
4.58675564905158,-0.81065229565492,-9.04993626474758,-6.9718350764943,-13.938206065007,8.13164210013495,13.0070487191067,115.829721227082,15.9554638132616,-6.96805088485131,-32.6902902716206
4.5099504545346,-0.78284081524641,-8.9376433326768,-7.02446148982737,-13.980545120886,8.43775318686096,13.1271207746323,115.701036002624,15.8233959551644,-7.21377361303416,-32.9193485289202
4.44984374970205,-0.75373516398686,-8.82256917464378,-7.07178333275737,-14.0266614585793,8.73594836759954,13.2384954640274,115.568744444079,15.6857078759238,-7.46503149431248,-33.1516908737201
4.4050829811966,-0.723306285381824,-8.70446095972081,-7.11382808444031,-14.0757792557941,9.02703883823715,13.3405385380135,115.432597026392,15.5409632600214,-7.71863236658908,-33.3866240690054
4.37426855564227,-0.691592809979886,-8.58305662587641,-7.15069592238539,-14.127160665362,9.31173018311316,13.4326914249253,115.292474601667,15.3876569048213,-7.97131084174824,-33.6233079804248
4.35602958166542,-0.658700605645969,-8.45808464185125,-7.18255432433557,-14.1801099767863,9.59061869837889,13.5144907402359,115.148390698896,15.2242374584059,-8.21977846419913,-33.8607709736781
4.34909791654653,-0.624800966504712,-8.32926400180078,-7.20963140570903,-14.2339765313259,9.86418987268895,13.5855819899839,115.000490684588,15.0491304641295,-8.46077203696719,-34.0979278601456
4.35237381166075,-0.59012749395388,-8.19630455304351,-7.23220829778396,-14.2881564733343,10.1328190331779,13.6457275026385,114.849048067927,14.8607611520862,-8.69109919342848,-34.3335997003353
4.36497781512272,-0.554971749728527,-8.0589077616087,-7.25061088195691,-14.3420934704949,10.3967740924336,13.6948090114846,114.694458301196,14.6575764941604,-8.90768039171466,-34.5665347257823
4.38628519550794,-0.519677780604673,-7.91676802112296,-7.26520118710202,-14.3952785821533,10.6562202705649,13.7328256117013,114.537230484321,14.4380661676037,-9.10758665281165,-34.7954296470749
4.41594069064607,-0.484635630004717,-7.76957460491076,-7.2763687279224,-14.4472494916657,10.9112266182232,13.7598880097559,114.377977426377,14.2007822262994,-9.2880725394948,-35.018950671167
4.45385273317073,-0.450273966695347,-7.61701434738781,-7.28452201815977,-14.4975893341064,11.1617741262499,13.776210070329,114.217404541972,13.9443574244117,-9.44660406783233,-35.2357536461595
4.50016748979188,-0.417051975864052,-7.45877511823546,-7.2900804421922,-14.5459253370374,11.4077651734458,13.7820986597164,114.056298060798,13.6675222425148,-9.58088144141609,-35.4445028754126
4.55522418550033,-0.385450672028427,-7.29455012107317,-7.29346661681455,-14.5919274534302,11.6490340431291,13.777942693983,113.895512998007,13.3691207143985,-9.68885668592611,-35.6438882794762
4.61949436896877,-0.355963804492166,-7.12404300809709,-7.29509932412712,-14.6353071159518,11.8853582410782,13.7642021373272,113.735961268306,13.0481251443326,-9.76874642399894,-35.8326407195814
