Finger Velocity,Scap_X,Scap_Y,Scap_Z,Shoulder horiz abd-adduction,Shoulder flexion-extension,Shoulder internal-external rotation,elbow flexion-extension,forearm pronation-supination,wrist flexion-extension,wrist radial-ulnar deviation
1.05244898671605,-3.98410905352222,-16.9870552120122,5.27307354974182,-34.5099825186358,-65.3221429311687,-20.5819317554415,89.4824492825641,-44.4904513614215,16.1751654515731,-45.6556692584365
1.2406848801627,-3.97263484912038,-16.9909648645869,5.26004862374046,-34.4945328480611,-65.3461105282206,-20.5273225010304,89.4946966364141,-44.3950441858023,16.0111195702423,-45.4269821235428
1.44451022072515,-3.95931350255908,-16.9950278117778,5.24490793135073,-34.4791230165718,-65.37419847455,-20.4715403369013,89.5136912373366,-44.2868604048141,15.8336294727986,-45.1865677575717
1.66222778752775,-3.94434300419433,-16.9990082940308,5.22736726305229,-34.4628590934973,-65.4061623545113,-20.4141451568037,89.5396396417961,-44.1650918116517,15.6392459376438,-44.9319836409919
1.89215420371876,-3.92796319919197,-17.0026651064782,5.20714129847696,-34.4446822739071,-65.4416282452877,-20.3545863142274,89.5726470653139,-44.0289803950209,15.4244141477602,-44.6607324956859
2.13256614905135,-3.91045232314723,-17.0057574773158,5.18394730277716,-34.4233756347653,-65.4800833835439,-20.2921982836168,89.6127055972977,-43.8778141243933,15.1855590216339,-44.3703383623605
2.38167329500278,-3.89212226888777,-17.0080509524747,5.15750874601302,-34.3975746699286,-65.5208695771245,-20.2261986604894,89.6596835244948,-43.7109213668096,14.9191718671362,-44.0584233659332
2.63760887439944,-3.87331266581421,-17.0093231276536,5.12755876272036,-34.3657816465549,-65.5631798373909,-20.1556890646576,89.7133161130594,-43.5276645752441,14.6218941205257,-43.7227807521424
2.89843200973302,-3.85438390627742,-17.0093690814653,5.09384338415054,-34.3263838243217,-65.6060585856309,-20.0796595231059,89.7731981868836,-43.3274338570998,14.2905943416698,-43.361440042438
3.16213804248107,-3.83570930219636,-17.0080063833352,5.05612449504397,-34.2776755619829,-65.6484056441947,-19.9969968757894,89.8387788109555,-43.1096409480985,13.9224353290235,-42.9727207555
3.42667439984543,-3.81766659433983,-17.0050795744371,5.01418248682591,-34.2178842883161,-65.6889840747091,-19.9064976505964,89.9093583469073,-42.8737140127917,13.5149291300477,-42.5552720301236
3.68996030832699,-3.8006290629485,-17.0004640435869,4.96781859753703,-34.1452002361043,-65.7264317868808,-19.8068856941586,89.9840881016049,-42.619093595373,13.0659787654016,-42.1080965700474
3.94990912591224,-3.78495650208463,-16.9940692358682,4.91685694276385,-34.0578097325993,-65.7592767250417,-19.6968346388137,90.0619727457697,-42.3452299664764,12.5739065260397,-41.6305584886225
4.20445234598914,-3.77098632575687,-16.9858411369052,4.86114624761928,-33.9539317038474,-65.7859553521987,-19.5749950473456,90.1418756386367,-42.0515820519119,12.0374696189292,-41.1223757390549
4.4515645031581,-3.75902507585276,-16.9757639737973,4.80056128558154,-33.8318568719484,-65.8048340894752,-19.4400258105927,90.222527149365,-41.7376180795772,11.4558646632601,-40.5835988032728
4.68928832873376,-3.74934059971234,-16.9638610732266,4.73500401848703,-33.68998889877,-65.8142333210915,-19.2906290802431,90.3025360070323,-41.4028180344388,10.8287230478986,-40.0145781407663
4.91575958814784,-3.74215515362341,-16.9501948264314,4.66440442049006,-33.5268864707309,-65.8124535289948,-19.1255877133055,90.3804036345392,-41.0466779674343,10.1560994312048,-39.4159235237686
5.12923109893478,-3.73763966231918,-16.9348657333343,4.58872096608816,-33.3413050597613,-65.7978030700454,-18.9438039157186,90.4545413315749,-40.66871616412,9.43845568305803,-38.7884587560407
5.32809548532011,-3.73590932246817,-16.918010531001,4.50794077371618,-33.1322368763203,-65.7686270545035,-18.7443375390019,90.5232900762021,-40.2684811408116,8.67664235393536,-38.1331753592527
5.51090627855923,-3.737020684109,-16.8997994461426,4.42207942044409,-32.8989473880243,-65.7233367371068,-18.5264423401677,90.5849426210728,-39.8455613904946,7.87187935808312,-37.4511886182761
5.67639702362721,-3.74097028560802,-16.8804326382262,4.3311804726426,-32.6410067361914,-65.6604388024212,-18.289598482101,90.6377674740602,-39.3995967378937,7.02573703669413,-36.7436989296055
5.82349810367251,-3.74769486309671,-16.8601359129705,4.23531480224288,-32.3583144500905,-65.5785639231009,-18.0335396325501,90.6800342795442,-38.9302910851009,6.14011817913674,-36.0119607328099
5.95135104388165,-3.75707310904916,-16.8391557843858,4.13457976846613,-32.051116027257,-65.4764939978885,-17.7582732013824,90.7100400621626,-38.4374262541995,5.21724099586227,-35.2572604887273
6.05932010547353,-3.76892891539766,-16.8177539524682,4.02909833438292,-31.7200102041158,-65.3531875308551,-17.4640925155397,90.7261357640572,-37.9208765811652,4.25962254402256,-34.4809042984279
6.14700102742376,-3.78303599904138,-16.7962012561911,3.9190181582729,-31.3659460739729,-65.2078026769082,-17.1515800485305,90.7267524983939,-37.380623890175,3.27006177953205,-33.6842149347107
6.21422681686364,-3.799123767065,-16.7747711735446,3.80451066052602,-30.9902096108271,-65.0397175284958,-16.8216011817127,90.7104269496792,-36.8167724649125,2.25162126367571,-32.8685373471572
6.26107052733609,-3.81688423460939,-16.7537329817612,3.6857700280751,-30.5943996141877,-64.8485472416559,-16.4752883686756,90.6758253672155,-36.229563613124,1.20760653598581,-32.0352511113331
6.28784499549434,-3.83597976329816,-16.7333447582952,3.56301208844,-30.180393584066,-64.6341575975668,-16.114015997169,90.6217656164164,-35.619389383045,0.141542196070177,-31.18578779435
6.29509952960115,-3.85605134744988,-16.7138464819842,3.43647296998032,-29.7503045435032,-64.3966745799853,-15.7393666881471,90.5472367715713,-34.986804942509,-0.942856222389136,-30.3216507949699
6.2836135555682,-3.87672714397229,-16.6954535644572,3.30640746324092,-29.3064303136951,-64.1364895382233,-15.3530902142754,90.451415755362,-34.3325390872397,-2.04171540669795,-29.4444349495216
6.25438722673194,-3.8976309261873,-16.6783511817927,3.17308700318052,-28.8511971713811,-63.8542595273102,-14.9570566233403,90.3336805641209,-33.6575023124112,-3.15104303977352,-28.5558431788925
6.20862899107464,-3.9183901511497,-16.6626897640459,3.03679719862568,-28.3871001447159,-63.5509025001616,-14.553205487083,90.1936196765273,-32.9627918649826,-4.2667723811797,-27.6576977458247
6.14774008412334,-3.93864336951366,-16.6485819287229,2.89783484596056,-27.9166424041649,-63.2275871802018,-14.1434934399551,90.0310373355382,-32.2496932016853,-5.38481228450551,-26.7519442733802
6.07329587890411,-3.95804676947141,-16.6361010299795,2.75650438350295,-27.4422762493497,-62.8857176488113,-13.7298422898299,89.8459545177904,-31.5196773232243,-6.50110162332149,-25.8406474679446
5.98702398029574,-3.9762797187417,-16.6252813629145,2.6131137763889,-26.9663480698835,-62.5269129091187,-13.3140899507783,89.6386055525756,-30.7743935521942,-7.61166642349671,-24.9259783823789
5.89077890789584,-3.9930492439442,-16.6161199271101,2.46796987689757,-26.4910493930534,-62.1529819099674,-12.8979462846905,89.4094305085964,-30.0156574723555,-8.71267742130574,-24.0101939140987
5.7865131821423,-4.00809346104796,-16.6085795257303,2.32137338558591,-26.0183757624801,-61.7658947119342,-12.4829556760122,89.1590636123125,-29.2454339385667,-9.80050539452295,-23.0956099380164
5.67624463214428,-4.02118403594333,-16.6025928724453,2.17361363707981,-25.5500947492515,-61.367750631641,-12.0704678188261,88.8883180835468,-28.4658152843817,-10.8717715288431,-22.1845699394084
5.56201980606432,-4.03212780134229,-16.5980673183246,2.02496353497685,-25.0877239062935,-60.9607442936911,-11.6616177802168,88.5981678720577,-27.6789950916953,-11.9233903253057,-21.2794111886304
5.44587351626001,-4.04076767919309,-16.5948898085196,1.87567503916168,-24.6325189609612,-60.5471305457079,-11.2573159308254,88.2897268611095,-26.8872381436623,-12.9526031008131,-20.382430398386
5.32978482194237,-4.04698305360205,-16.5929317353254,1.72597563606688,-24.185472016112,-60.1291891612095,-10.8582478081604,87.9642261748624,-26.0928474464154,-13.957000874942,-19.495850508552
5.21563016284289,-4.05068970962578,-16.5920534552975,1.5760661775219,-23.7473190223929,-59.7091901869512,-10.4648834206329,87.6229902816596,-25.2981294438391,-14.9345362181692,-18.6217898730132
5.10513490666274,-4.0518394076249,-16.5921083551889,1.42612036220893,-23.3185553465755,-59.2893607053052,-10.0774949708086,87.2674126177615,-24.5053587224426,-15.8835243326876,-17.7622347709076
4.99982522096584,-4.05041911532779,-16.5929464551293,1.27628598480381,-22.8994579537243,-58.8718536898211,-9.69618155680947,86.8989314597501,-23.7167435841658,-16.8026341987444,-16.9190158605757
4.90098283615023,-4.04644988254016,-16.5944176094717,1.12668792675798,-22.4901125785032,-58.4587195360181,-9.3208991573679,86.5190067444783,-22.9343938492764,-17.6908710777415,-16.0937889027628
4.80960578881548,-4.03998532216407,-16.5963744022106,0.977432732315682,-22.0904442700496,-58.0518807478091,-8.95149412058971,86.1290984708232,-22.1602921472242,-18.5475520670508,-15.2880197542223
4.72637845268813,-4.03110965532929,-16.5986748420303,0.828614511898486,-21.7002498101777,-57.6531101494719,-8.58773841976633,85.7306472182808,-21.3962697703904,-19.3722767246517,-14.5029733056482
4.65165392041666,-4.01993528714245,-16.6011849511767,0.680321845892102,-21.3192306808604,-57.2640128727026,-8.2293650720253,85.3250571888834,-20.6439879161375,-20.1648949172722,-13.7397058244827
4.5854510121109,-4.0065999050004,-16.6037813142396,0.532645326778975,-20.9470254627119,-56.8860122475946,-7.87610231628852,84.9136820325657,-19.9049248461512,-20.9254739238332,-12.9990601449399
4.52746690154041,-3.99126313263221,-16.6063536062542,0.38568537074848,-20.5832407566508,-56.5203396230407,-7.52770539492997,84.4978135696544,-19.1803691773796,-21.654266499302,-12.2816632871953
4.4771047593685,-3.97410282036059,-16.6088070624846,0.239559942215603,-20.2274799173473,-56.1680280647215,-7.18398504646966,84.0786733955427,-18.471419217014,-22.3516811918028,-11.5879262848033
4.43351421285486,-3.95531109375248,-16.6110647991059,0.0944118609154442,-19.8793690616641,-55.8299098224143,-6.84483206482699,83.6574072515272,-17.7789879895899,-23.0182558031286,-10.9180461750045
4.39564113315641,-3.93509031398178,-16.6130698511851,-0.0495846023783192,-19.5385799648737,-55.5066174165918,-6.51023749791299,83.23508197218,-17.103813390463,-23.6546345334696,-10.2720102206943
4.36228252717857,-3.91364912333216,-16.6147867626223,-0.192218094531846,-19.2048495778263,-55.1985881631255,-6.18030823889041,82.8126847692516,-16.4464727386105,-24.2615490614048,-9.64960247590453
4.33214222558385,-3.89119875451846,-16.6162025489342,-0.333235725206064,-18.877995988429,-54.9060719248244,-5.85527790463556,82.3911245802208,-15.8074008868908,-24.8398035757293,-9.05041278790152
4.30388355625917,-3.86794976636007,-16.6173268691861,-0.472339962562524,-18.5579307142408,-54.6291418368402,-5.53551299469931,81.9712351911696,-15.1869109689429,-25.390263600396,-8.47384825967162
4.27617609016452,-3.84410932746566,-16.618191293389,-0.609187023244233,-18.2446672525254,-54.3677076933424,-5.22151437666624,81.5537798351042,-14.585216809252,-25.9138483360812,-7.91914708983328
4.24773461601414,-3.81987910725543,-16.618847631261,-0.743386882012921,-17.938325833369,-54.1215316088393,-4.91391415320926,81.1394569685052,-14.0024559949666,-26.4115261609226,-7.38539458810502
4.21734953701635,-3.79545376213759,-16.6193653813012,-0.874505011234976,-17.6391343397229,-53.8902454903825,-4.61346796400839,80.7289069434375,-13.4387126126993,-26.8843128633328,-6.87154106945065
4.18390874727377,-3.77101994405022,-16.619828441623,-1.00206592238983,-17.347425411927,-53.6733697914098,-4.32104282507929,80.322719320881,-12.8940387004181,-27.3332720988664,-6.37642129510321
4.14641167298878,-3.74675572469719,-16.6203312761139,-1.12555850450492,-17.0636298617416,-53.4703329785836,-4.03760074856192,79.921440610689,-12.3684735561284,-27.7595174430285,-5.89877517505514
4.10397655224657,-3.72283032042131,-16.6209747474967,-1.24444305881621,-16.7882666518941,-53.2804911398641,-3.76417857950325,79.5255822702549,-11.8620601775036,-28.1642152365847,-5.43726956671287
4.05584221423047,-3.69940400490018,-16.6218618254348,-1.35815985752781,-16.5219297981706,-53.1031471959638,-3.50186464703554,79.1356288411075,-11.374858277243,-28.54858722043,-4.99052115697615
4.00136565879861,-3.67662809712768,-16.6230933700864,-1.46613903021764,-16.2652725964677,-52.9375692384236,-3.25177290324602,78.7520461419786,-10.9069535253489,-28.9139118107034,-4.55712053297379
3.94001668606743,-3.65464491061797,-16.624764186594,-1.56781159099436,-16.0189895847581,-52.7830075933683,-3.01501523051562,78.3752894627596,-10.4584628973087,-29.2615228528593,-4.13565756459488
3.87137073112201,-3.6335875566669,-16.6269595362501,-1.66262142903635,-15.7837966579748,-52.6387102931587,-2.7926725944004,78.0058117181216,-10.0295362278466,-29.5928048567291,-3.72474811345029
3.79510095918254,-3.61357952032572,-16.6297522622932,-1.75003806238096,-15.5604097955852,-52.5039367247732,-2.58576575720173,77.644071528773,-9.62035425978591,-29.9091840334156,-3.32306187526166
3.71097060069943,-3.59473397447834,-16.6332006376851,-1.82956988628146,-15.349522949197,-52.3779693087553,-2.39522636356725,77.2905412057741,-9.2311236318813,-30.2121148616018,-2.92935091635021
3.61882647788739,-3.57715285542361,-16.6373469777885,-1.90077754745779,-15.1517857535548,-52.2601231402506,-2.22186933075548,76.9457146173991,-8.86206937269017,-30.5030623277579,-2.54247824386886
3.51859471760486,-3.56092577533971,-16.6422169991978,-1.96328698059032,-14.9677818271549,-52.1497535910586,-2.06636755579016,76.6101149165174,-8.51342555944178,-30.7834803548346,-2.16144560324025
3.41027978890842,-3.54612887696824,-16.6478198613589,-2.01680159113589,-14.7980084755775,-52.0462619287037,-1.9292299302283,76.28430210029,-8.1854248585582,-31.0547872281668,-1.78541964664855
3.29396828814517,-3.53282373850843,-16.6541488042352,-2.06111307597837,-14.6428585825835,-51.9490990570551,-1.8107835177985,75.9688803670617,-7.87828768794579,-31.3183390378639,-1.41375564791078
3.16983938342888,-3.52105641990202,-16.6611822860837,-2.09611043092589,-14.5026053821752,-51.8577675263945,-1.7111605392852,75.6645052308673,-7.59221172909023,-31.575402288381,-1.04601801331341
3.038184623514,-3.51085671899109,-16.6688855197669,-2.12178677845301,-14.3773906750547,-51.7718220007392,-1.63029058004812,75.3718903502308,-7.32736246158379,-31.8271268881075,-0.68199692301741
2.89944106949996,-3.50223768710637,-16.6772122987269,-2.13824374013725,-14.2672169083555,-51.6908684028219,-1.56789822903378,75.0918140184697,-7.08386528548683,-32.0745207387777,-0.321720518912667
2.75424365846738,-3.49519544111694,-16.6861069958803,-2.14569316516338,-14.1719433924564,-51.6145619749431,-1.52350618713262,74.8251252415157,-6.86179964058434,-32.3184271093164,0.0345378680977828
2.60350569081404,-3.48970930127434,-16.695506613213,-2.14445610633858,-14.0912867897416,-51.5426044917635,-1.49644374153256,74.5727492966648,-6.66119534680753,-32.5595059014639,0.386257868937841
2.44854073820016,-3.48574227882475,-16.7053427594244,-2.1349590104799,-14.0248258783509,-51.4747408390166,-1.48586037876889,74.335692630191,-6.48203121049339,-32.7982197798434,0.732675889474806
2.29124527288836,-3.48324193192105,-16.7155434402575,-2.11772716536214,-13.9720104663807,-51.4107551348784,-1.49074418969521,74.1150469247854,-6.32423579603732,-33.034825932559,1.07279467048342
2.13436788849622,-3.48214160012526,-16.7260345639113,-2.09337552521184,-13.9321742045142,-51.3504665257003,-1.50994459351482,73.9119921540701,-6.18769015992093,-33.2693739545405,1.40539842720447
1.9818928678189,-3.48236201421427,-16.7367410935506,-2.06259712349737,-13.9045509153635,-51.2937247421597,-1.54219876795954,73.7277984368469,-6.07223227302792,-33.5017100261551,1.72907314109244
1.83954600809488,-3.48381325811603,-16.7475878181659,-2.02614937529361,-13.8882939267643,-51.2404054615372,-1.58616101846423,73.5638265022571,-5.97766280465829,-33.7314872165065,2.04223134790656
1.71534646555724,-3.48639703524351,-16.7584997551729,-1.98483866882069,-13.8824977683802,-51.1904054924956,-1.64043416058373,73.4215265769565,-5.90375190245802,-33.958181396789,2.34314058631745
1.61990910571092,-3.49000916706777,-16.7694022333963,-1.93950373820435,-13.8862214778566,-51.1436377857828,-1.70360185096234,73.3024355093382,-5.85024657612468,-34.1811119388559,2.62995454404463
1.56584496043986,-3.49454223508546,-16.7802207234208,-1.8909983810373,-13.8985126845858,-51.1000262810628,-1.77426072009154,73.2081719579491,-5.81687827963845,-34.3994661375412,2.90074586899096
1.56550694621947,-3.49988827439206,-16.7908804787367,-1.84017412094864,-13.9184316129582,-51.0595006254738,-1.85105116343914,73.1404294941771,-5.80337028706072,-34.6123261482499,3.15353960095447
1.6273791889843,-3.50594143570038,-16.8013060323659,-1.78786341797196,-13.9450741706426,-51.0219908353821,-1.93268572907718,73.1009675023175,-5.80944446937453,-34.8186971572059,3.38634621384552
1.75337506447955,-3.5126005424212,-16.8114205779166,-1.7348640087337,-13.9775933440302,-50.9874220035326,-2.01797416500327,73.0915998005106,-5.83482710163243,-35.0175354786072,3.59719332459683
1.93928763220985,-3.51977147085338,-16.8211452686164,-1.68192491755635,-14.0152182009153,-50.9557091625603,-2.10584433350705,73.1141809513883,-5.87925335808993,-35.2077753006422,3.78415521859785
2.17767662768048,-3.52736927528073,-16.8303984938608,-1.62973461127823,-14.0572698994478,-50.9267523974662,-2.19535836517735,73.1705902803736,-5.9424701870687,-35.3883528942654,3.94537946570465
2.46070140801707,-3.53531997512746,-16.8390952230855,-1.57891167230344,-14.1031742197301,-50.9004322666367,-2.28572361739685,73.2627136715964,-6.02423729909074,-35.5582272583703,4.07911005507912
2.78160164806758,-3.5435619254935,-16.8471465229853,-1.52999824728379,-14.152470257154,-50.876605561236,-2.37629820736899,73.3924232657393,-6.12432605678419,-35.7163963932224,4.1837066526283
3.13504503515438,-3.55204670541571,-16.8544593514064,-1.48345640735844,-14.2048150325816,-50.8551014137696,-2.46659108481183,73.5615552409418,-6.24251612840829,-35.861908659113,4.25765976986478
3.51694510879556,-3.56073947849944,-16.8609367140564,-1.43966743377594,-14.2599838859869,-50.8357177556515,-2.55625678988992,73.7718859176732,-6.37858985778361,-35.9938689781211,4.2996018176081
3.92414185660612,-3.56961880761281,-16.8664782434501,-1.39893391823855,-14.317866636789,-50.8182181171072,-2.64508521753378,74.0251064909619,-6.53232440307723,-36.1114399621791,4.30831419688803
4.35410650969903,-3.5786759346489,-16.8709812299478,-1.3614844484414,-14.3784596156386,-50.8023287583131,-2.73298687450895,74.3227967565058,-6.70348179300608,-36.2138383895098,4.28273075352194
4.80471216600611,-3.58791355979845,-16.8743421107166,-1.32748055243704,-14.4418537886729,-50.7877361160469,-2.81997424782209,74.6663982569718,-6.89179713333341,-36.3003277877135,4.22193809405812
5.27406769342417,-3.59734416842922,-16.8764584065651,-1.29702550938918,-14.5082193010388,-50.7740845456543,-2.90613999136112,75.0571873275846,-7.09696527049145,-36.3702081810003,4.12517342006537
5.76040135688919,-3.60698796046258,-16.877231084186,-1.27017459529631,-14.577786865429,-50.7609743372269,-2.99163269204433,75.4962485660789,-7.31862629404166,-36.42280426977,3.99182065811664
6.26198088682975,-3.6168704416085,-16.8765673073087,-1.24694631375865,-14.6508265155163,-50.7479599901093,-3.07663100901738,75.9844492942894,-7.55635034767764,-36.4574533915642,3.82140571285436
6.77705968736212,-3.62701974058909,-16.8743835234224,-1.22733416002538,-14.727624329049,-50.7345487412202,-3.16131699241152,76.5224156173007,-7.80962231958686,-36.4734945619017,3.61359163941986
