Finger Velocity,Scap_X,Scap_Y,Scap_Z,Shoulder horiz abd-adduction,Shoulder flexion-extension,Shoulder internal-external rotation,elbow flexion-extension,forearm pronation-supination,wrist flexion-extension,wrist radial-ulnar deviation
1.47558929251671,-4.29321503204685,-12.2775537391073,11.7542405355625,-44.1590644458528,-63.3743049060083,-28.5751815796553,90.8394816371994,-48.4663824331155,37.2641146256818,-57.3445528741354
1.55239502009162,-4.31780775170043,-12.2647558999347,11.683673021709,-44.265994081538,-63.271688960336,-28.5801180998418,90.7875281805393,-48.1221718511461,37.3872350325319,-57.5306815310521
1.61521660766929,-4.34197782911683,-12.2498283835414,11.6102436018521,-44.3976259328012,-63.1590163523617,-28.6036733897465,90.7505779716935,-47.752894723708,37.4716069222934,-57.6734547368455
1.66478515703018,-4.36538270106801,-12.2326388314161,11.534002720998,-44.5537180018205,-63.0356397303713,-28.6455702423935,90.7307755680792,-47.3574958888243,37.5119104674053,-57.766244407945
1.70388442337821,-4.38766925728214,-12.2130666759046,11.4549761040399,-44.7335044290722,-62.9008525795385,-28.7050250460158,90.7302194355937,-46.934849181666,37.5039978442281,-57.8036518309535
1.73809475850719,-4.40847753604596,-12.1910046447865,11.3731618326034,-44.9356781880938,-62.753885435353,-28.7807350021402,90.7509347469847,-46.4837553735511,37.4449873954695,-57.7816519243972
1.77654837825125,-4.42744444007171,-12.1663602224035,11.2885281908086,-45.1583843652078,-62.5939041408892,-28.8708782472867,90.7948468615624,-46.0029423201618,37.333269098569,-57.6976490231862
1.83233873221736,-4.4442074267535,-12.139057020479,11.2010123095475,-45.3992246923962,-62.420010378956,-28.9731275476142,90.8637560077878,-45.4910672241904,37.1684291213538,-57.5504491321809
1.92195487750328,-4.45840813459428,-12.1090360083423,11.1105196101544,-45.6552738033628,-62.2312445696578,-29.0846778301219,90.9593136822677,-44.9467208468454,36.9511091986074,-57.3401613674492
2.06317631757394,-4.46969591027116,-12.0762565583731,11.0169240138595,-45.9231074282973,-62.0265910688779,-29.2022873302969,91.0830012533903,-44.3684334859086,36.6828214875159,-57.0680462753267
2.27175706133162,-4.4777311972546,-12.0406972783388,10.9200688454415,-46.1988424317181,-61.8049854483158,-29.3223315919922,91.2361112132892,-43.7546825775132,36.3657411063335,-56.7363305910186
2.55850311619857,-4.4821887388293,-12.0023566245974,10.8197683241613,-46.4781882480119,-61.5653234979665,-29.4408689932674,91.4197314543278,-43.103901869031,36.0024970995287,-56.3480071357455
2.92836018088294,-4.48276054065408,-11.9612533117718,10.7158095103401,-46.7565089105541,-61.306471480448,-29.5537159473093,91.6347328549231,-42.4144922481728,35.5959789422546,-55.9066357280378
3.38151298720343,-4.47915853646688,-11.91742654869,10.607954568389,-47.0288945279628,-61.0272770918472,-29.6565294856511,91.8817603474204,-41.6848344906217,35.1491708557492,-55.4161570775175
3.91521540675127,-4.47111690795513,-11.870936134401,10.4959432170636,-47.2902407496599,-60.7265805524195,-29.7448945988653,92.1612275160183,-40.9133043790599,34.665021014133,-54.8807274268386
4.52527004034908,-4.4583940240061,-11.8218624426149,10.3794952572485,-47.5353344909636,-60.4032252722479,-29.8144135038833,92.4733146474517,-40.0982908064878,34.1463478941963,-54.3045778369206
5.20686064850369,-4.44077398130092,-11.770306309361,10.2583130869188,-47.7589439624789,-60.0560676193596,-29.8607939364434,92.8179700406921,-39.2382175600636,33.5957820856588,-53.6918988956012
5.95489498546655,-4.41806774426587,-11.7163888191314,10.1320841302984,-47.9559108779153,-59.6839854552373,-29.87993363234,93.1949142766449,-38.3315694561791,33.0157391256619,-53.0467494549819
6.7640864843948,-4.39011389539654,-11.6602509637827,10.00048313138,-48.1212426106701,-59.2858852752384,-29.867998354933,93.6036470548429,-37.376923354101,32.4084173935669,-52.3729867514127
7.62893094868957,-4.35677901652022,-11.6020531310269,9.8631742998543,-48.2502020470846,-58.8607079762699,-29.8214911406628,94.0434561276894,-36.3729843291363,31.775814691452,-51.6742148074595
8.54365879301461,-4.3179577311593,-11.5419743670597,9.71981335143977,-48.3383929521517,-58.40743345562,-29.7373108589759,94.5134278175879,-35.3186269685399,31.1197576203841,-50.9537481728054
9.50219704892986,-4.27357245245202,-11.4802113491167,9.57004954680403,-48.381838816385,-57.9250844117691,-29.6127986916996,95.012458599608,-34.2129413969249,30.4419389150264,-50.2145885988263
10.4981524394317,-4.22357289950048,-11.4169769983343,9.41352789218511,-48.3770533717655,-57.4127298532626,-29.4457716802546,95.5392672705589,-33.0552832601372,29.7439591469378,-49.4594129093367
11.5248169488277,-4.16793545955078,-11.3524986646684,9.24989170974433,-48.3211012281404,-56.8694889039538,-29.2345430157286,96.0924072929862,-31.8453264988513,29.0273703314499,-48.6905709115813
12.5751936119614,-4.10666247402077,-11.28701582749,9.0787858054259,-48.2116473696363,-56.2945355101011,-28.9779292283991,96.6702789889492,-30.5831173297113,28.2937197819395,-47.9100925533559
13.64203917609,-4.03978150894724,-11.2207772789729,8.89986044524446,-48.046994540758,-55.6871046116572,-28.6752448584703,97.2711413568773,-29.2691274492135,27.5445930044339,-47.119703651856
14.7179202247182,-3.96734464019845,-11.1540377923933,8.71277629375397,-47.8261078185622,-55.0465002495229,-28.326285544719,97.8931233893369,-27.9043041307687,26.7816545755473,-46.3208494678925
15.7952796103163,-3.88942775237567,-11.0870543218423,8.5172103829401,-47.5486259031654,-54.3721059501317,-27.9313007445237,98.5342348730407,-26.4901146455457,26.0066858708589,-45.5147252669205
16.8665103588108,-3.80612982942435,-11.0200818246868,8.31286308939442,-47.2148588883977,-53.6633975574443,-27.4909575174022,99.1923767479134,-25.0285823348326,25.221618224962,-44.7023128383838
17.9240344971681,-3.71757221132541,-10.9533688297406,8.0994660231871,-46.8257725334561,-52.9199584690254,-27.0062970024014,99.865351183214,-23.5223117175256,24.4285595979817,-43.8844217337168
18.960384499839,-3.62389780482132,-10.8871528852145,7.87679068052068,-46.3829593578608,-52.1414969840145,-26.4786854169668,100.550871588608,-21.9745002558368,23.6298121777525,-43.061733749457
19.96828525765,-3.52527026110849,-10.8216560161208,7.64465767680344,-45.88859720935,-51.3278652023424,-25.9097615851308,101.246572808032,-20.3889348550346,22.8278778049909,-42.2348490027514
20.9407346569387,-3.42187315995052,-10.7570803115193,7.40294634342716,-45.3453962834147,-50.4790786496923,-25.3013831275716,101.950021736074,-18.7699718548678,22.0254479849788,-41.4043319100445
21.8710810293979,-3.31390925602309,-10.6936037558931,7.15160443089883,-44.7565358885529,-49.5953355679509,-24.6555734757226,102.658728546535,-17.1225001596453,21.225375765978,-40.5707555202033
22.753095903372,-3.2015998397756,-10.6313764216648,6.89065761484247,-44.1255925456491,-48.6770346276961,-23.9744717793475,103.370158635073,-15.4518881824102,20.4306279713084,-39.7347429468696
23.5810406613412,-3.08518423913117,-10.5705171548753,6.62021845951205,-43.4564612815035,-47.7247897020897,-23.2602875571765,104.081745268275,-13.7639163385296,19.6442180646956,-38.8970050426958
24.3497258894704,-2.96491944754795,-10.5111109091135,6.34049446527997,-42.7532722289036,-46.739440308697,-22.5152616171319,104.790902827807,-12.0646977846649,18.8691221068363,-38.058373905667
25.0545623947383,-2.84107982358627,-10.4532069005723,6.05179481831259,-42.0203048759398,-45.7220564034787,-21.7416343866021,105.495040468234,-10.3605908299561,18.1081825711521,-37.2198322327549
25.6916030630156,-2.71395678252998,-10.3968177564222,5.75453547923887,-41.261902492241,-44.6739364194397,-20.9416223781055,106.191575984123,-8.65810684836894,17.3640069092854,-36.3825388243759
26.2575749360851,-2.58385839872992,-10.3419198051449,5.44924229914427,-40.4823893574286,-43.5965977851311,-20.1174030881096,106.877949703495,-6.96381755721882,16.6388692850091,-35.5478505525719
26.7499010946719,-2.45110885277708,-10.288454614097,5.13655192999511,-39.6859933835696,-42.4917596268926,-19.2711081899939,107.551638279121,-5.28426522406515,15.9346244193712,-34.7173407544908
27.166712145226,-2.31604767739362,-10.2363318214948,4.81721038104124,-38.8767765295352,-41.3613179270162,-18.4048244345946,108.210168320699,-3.6258787855249,15.2526417850112,-33.892813371151
27.5068473172134,-2.17902876995051,-10.1854332425525,4.492069139896,-38.0585750448707,-40.2073140190417,-17.5206012184877,108.851129879278,-1.99489808277803,14.5937665287539,-33.0763114374918
27.7698453816398,-2.04041914668562,-10.1356181584312,4.16207882026886,-37.2349510749951,-39.0318978672756,-16.6204633484246,109.472189843407,-0.3973075345423,13.9583108157571,-32.2701180085331
27.9559257969646,-1.90059741870981,-10.0867296265982,3.82828032872185,-36.4091565567938,-37.8372880245682,-15.7064271790041,110.071105332046,1.1612202972313,13.3460762279566,-31.4767474831407
28.0659606720892,-1.75995197682656,-10.0386015834139,3.49179357724209,-35.5841097010957,-36.6257304468752,-14.7805181063214,110.645737183678,2.67537150974617,12.7564048767907,-30.6989256438205
28.1014383044495,-1.61887888236588,-9.99106644400648,3.15380382022606,-34.7623837619651,-35.3994584488362,-13.84478742034,111.194063653211,4.14022876490085,12.1882543789113,-29.9395575153078
28.0644192013698,-1.47777947546442,-9.94396284548213,2.81554577066486,-33.9462072784215,-34.1606560070796,-12.9013267603389,111.714194428767,5.55130125001467,11.6402900185887,-29.2016832027999
27.9574856219454,-1.33705773255437,-9.8971431394371,2.47828575156612,-33.1374745646287,-32.9114263599834,-11.9522788365883,112.204385046615,6.90454766831802,11.110986384409,-28.4884230108207
27.7836857822939,-1.1971174323728,-9.85048023118383,2.14330225753093,-32.3377649255404,-31.6537674327834,-10.999843598874,112.663051701463,8.19639315682604,10.5987305697812,-27.8029141863603
27.5464739468528,-1.05835922106021,-9.80387338841484,1.81186541933258,-31.5483688841628,-30.3895550809583,-10.0462795573558,113.088786337646,9.42374091885138,10.1019196637258,-27.1482424238318
27.2496476806156,-0.921177694323467,-9.75725269135295,1.48521595685803,-30.7703196197006,-29.1205345612483,-9.09390041494921,113.480371798668,10.5839792367352,9.61904660911819,-26.5273717006647
26.8972835603081,-0.785958631138306,-9.71058185825559,1.16454425688873,-30.0044278276344,-27.8483200756844,-8.14506750710141,113.836796731363,11.6749844064129,9.148770312108,-25.9430760341233
26.4936726353951,-0.653076514504316,-9.66385925130267,0.850970219807659,-29.2513183134547,-26.5744017378008,-7.2021787484952,114.157269887042,12.695120028039,8.68996783543329,-25.397876405325
26.0432568918945,-0.522892458053121,-9.61711695017028,0.545524487918266,-28.5114668039864,-25.3001589142829,-6.26765485984913,114.441233424253,13.6432330160464,8.24176833372525,-24.8939854918969
25.5505679032228,-0.395752624902648,-9.57041787149898,0.249131605447327,-27.7852356793557,-24.0268786211013,-5.34392361443946,114.688374787257,14.5186466563438,7.80356991056583,-24.4332620973872
25.0201687533888,-0.271987183855165,-9.52385100500793,-0.0374044212153283,-27.0729075669663,-22.7557775054847,-4.43340274304716,114.898636710719,15.3211510077911,7.37504167819634,-24.0171763512365
24.4566001903127,-0.151909805417539,-9.4775249246275,-0.313411783066329,-26.3747159739021,-21.4880259107648,-3.53848200614668,115.072224891536,16.0509908865546,6.95611390605273,-23.6467859598972
23.8643318133944,-0.0358176613905294,-9.4315598109414,-0.578359459023938,-25.6908723541236,-20.2247725790635,-2.66150480590838,115.209612881312,16.7088515808356,6.54695923481439,-23.3227231072349
23.2477189233537,0.0760081404903162,-9.3860782869498,-0.831862545238457,-25.021589207038,-18.9671686763522,-1.80474957628972,115.311543792259,17.2958423396947,6.14796757922434,-23.0451911053749
22.6109654687167,0.183301781360087,-9.34119542414524,-1.07368423665505,-24.367098981972,-17.7163900055279,-0.970411062805625,115.37902847458,17.8134775826907,5.75971671349998,-22.8139696144749
21.9580933183299,0.285811731269786,-9.2970083240613,-1.30373448650979,-23.7276687181024,-16.4736564823914,-0.160581498895896,115.413339908596,18.2636556980116,5.38293984839562,-22.6284271661247
21.2929178803791,0.383299656531863,-9.25358572413659,-1.52206547773936,-23.1036104819628,-15.2402481604055,0.622768373798089,115.416003650217,18.6486352443116,5.01849096579249,-22.4875398033872
20.619029884069,0.475539374735145,-9.21095811499381,-1.72886413277141,-22.4952877736611,-14.0175172805281,1.37780848983069,115.388784264462,18.9710083523013,4.66730837536607,-22.3899148342389
19.9397829496188,0.562315995843003,-9.16910888457296,-1.92444195922891,-21.9031181575557,-12.8068959806779,2.10286882665568,115.333667774486,19.2336711408686,4.33037686577882,-22.3338189073598
19.2582864050815,0.643425375601557,-9.12796701240268,-2.10922258121587,-21.3275724363136,-11.6098994258559,2.79645880620325,115.252840244505,19.4397910236769,4.00868882077877,-22.3172098010437
18.5774026739349,0.718673986759001,-9.08740180741517,-2.2837273455987,-20.7691707339043,-10.4281242275188,3.45728642825018,115.148662705818,19.5927708880856,3.70320467049675,-22.3377714556713
17.8997484636988,0.78787928800822,-9.04722010043993,-2.44855942518017,-20.2284758864206,-9.26324213252662,4.08427667346333,115.023642725536,19.6962102738535,3.41481306078055,-22.3929518840281
17.2276989396194,0.8508706457182,-9.00716616986952,-2.60438686654095,-19.7060845620764,-8.11698909698867,4.67658857661253,114.880403008108,19.7538638509673,3.14429120534362,-22.4800036522881
16.5633940729904,0.907490843317205,-8.966924515983,-2.75192504691046,-19.2026165468483,-6.99115001890766,5.23363027653224,114.721647513437,19.7695976774877,2.89226605827226,-22.5960266194487
15.9087464122624,0.957598195972612,-8.92612542885611,-2.89191900767702,-18.718702642807,-5.88753956980872,5.75507131382632,114.550125671077,19.7473438975897,2.65917717993552,-22.7380125465284
15.2654496346298,1.00106926787207,-8.88435313027515,-3.02512611716656,-18.2549716304892,-4.80797972243705,6.24085147021977,114.368595357131,19.6910547066709,2.44524241953229,-22.9028910489397
14.6349873904939,1.03780216042703,-8.8411561196316,-3.15229947944918,-17.8120367375659,-3.75427470789668,6.69118551281377,114.179785366554,19.6046565435808,2.25042775160741,-23.0875761949855
14.0186421435394,1.06772030154011,-8.79605922748826,-3.27417245461726,-17.3904820264303,-2.72818424097296,7.10656331218318,113.986358151654,19.4920055433537,2.07442273155657,-23.2890128919551
13.4175039220413,1.0907766235475,-8.74857678993447,-3.39144460266842,-16.9908490633678,-1.73139591304562,7.48774494333578,113.790873603399,19.356845287533,1.91662303370979,-23.5042220871925
12.832479116239,1.10695797730297,-8.6982263100774,-3.50476931985753,-16.6136241707762,-0.765497656446849,7.83575055078821,113.595754622905,19.2027678332353,1.77612138056368,-23.7303437654771
12.2642996636353,1.1162895973751,-8.64454197232066,-3.61474340454894,-16.2592265046837,0.168048867927135,8.15184495286609,113.40325517056,19.0331788973747,1.65170786724427,-23.9646767448395
11.713533139137,1.11883941108319,-8.58708741577059,-3.72189875887272,-15.9279971536125,1.06793320465589,8.43751715809483,113.215431399891,18.8512679219278,1.54188026991699,-24.2047143442525
11.180594390459,1.11472197174862,-8.52546724232094,-3.82669638633559,-15.6201894245611,1.93301872735055,8.69445514709531,113.034116392252,18.6599835525312,1.44486445889135,-24.4481751005285
10.66575941353,1.10410179211408,-8.45933681614346,-3.92952277018409,-15.3359604595536,2.76236244863591,8.92451641843932,112.860898913348,18.4620148337233,1.35864456333748,-24.693027838789
10.169182133913,1.08719585704593,-8.38840999453547,-4.03068861240848,-15.075364298575,3.55523163130874,9.12969490307266,112.69710651919,18.2597781721868,1.28100207945354,-24.9375105471408
9.69091464026235,1.06427510722189,-8.31246451561589,-4.13042979686564,-14.838346463535,4.31111691179473,9.31208493612257,112.543793251798,18.0554098633889,1.20956270005628,-25.1801426637243
9.23093120322353,1.03566470893941,-8.23134485937827,-4.22891034017864,-14.6247400847301,5.02974171924124,9.47384306090908,112.401732085375,17.8507637407614,1.14184930342462,-25.419730541808
8.78915611389786,1.00174295985263,-8.14496249517162,-4.32622703150958,-14.4342635346839,5.71106782517742,9.61714853733106,112.271412211198,17.6474133099051,1.07533930061156,-25.6553660124541
8.36549500235943,0.962938727012428,-8.05329352891938,-4.42241543981341,-14.2665194867979,6.35529689974474,9.74416352437862,112.15304118256,17.4466575867218,1.0075244107141,-25.8864181226999
7.95986886515134,0.919727372142783,-7.95637386554822,-4.51745697414528,-14.1209952929677,6.96286799712635,9.85699398345407,112.046551877208,17.2495297813129,0.935970903734983,-26.1125183007817
7.57224955831781,0.872625187170042,-7.85429210449071,-4.61128670423649,-13.9970645863008,7.53445096178628,9.95765238706252,111.951614169055,17.056807971805,0.858378407927226,-26.3335393936825
7.20269501375573,0.822182434623305,-7.74718048598556,-4.70380167090896,-13.893990059748,8.07093584684946,10.0480233064618,111.867651128768,16.8690269963269,0.772635509702586,-26.5495692360655
6.85138192146491,0.768975154707186,-7.63520429780881,-4.79486943002567,-13.810927431101,8.57341855874428,10.1298328944381,111.793859493905,16.6864909409191,0.676870560940823,-26.7608796363429
6.51863309682945,0.713595958187669,-7.51855022855515,-4.88433657965959,-13.7469306553,9.04318306596786,10.2046231850184,111.729234068113,16.5092857819335,0.569496329353725,-26.967891884768
6.2049362369509,0.656644070766541,-7.39741420869028,-4.97203702608708,-13.7009584670723,9.48168061099397,10.2737320053373,111.67259562908,16.3372919128912,0.449247366624906,-27.171140069695
5.91095030889749,0.598714929589162,-7.27198931104989,-5.05779976047486,-13.6718823245686,9.89050643221142,10.3382791343851,111.622621847313,16.1701964227529,0.315209219695682,-27.3712336035319
5.63749551195242,0.540389651861012,-7.14245428462506,-5.14145595040063,-13.6584957857228,10.2713745423487,10.3991591476586,111.57788064151,16.0075050952913,0.166838872187045,-27.5688203904941
5.38552281962345,0.482224695687489,-7.00896326595314,-5.22284519531253,-13.6595252958852,10.6260911334441,10.4570411556584,111.536865320519,15.8485541765675,0.00397607758645181,-27.7645520037757
5.15605985978924,0.424742016790695,-6.87163715412515,-5.30182084361175,-13.6736423068722,10.9565271964246,10.5123753801685,111.498030789248,15.692522010904,-0.173154464681911,-27.9590520796288
4.95013174775285,0.36841999906085,-6.73055705748758,-5.37825431410883,-13.6994765915307,11.2645909602595,10.5654062283603,111.459830033972,15.5384406786771,-0.363949835815652,-28.152888889547
4.76865881635817,0.313685407581889,-6.58576012785139,-5.45203840410334,-13.735630571275,11.5522007679451,10.6161912445442,111.42075005969,15.3852077974175,-0.567443960819669,-28.3465527357053
4.61233803622493,0.260906580499378,-6.43723798725683,-5.52308959985623,-13.7806944357162,11.8212590020208,10.6646250636899,111.379346433684,15.2315986847378,-0.782330136207429,-28.5404384536648
4.48152064766892,0.21038803897483,-6.28493781853099,-5.59134943088303,-13.8332617917646,12.0736276373553,10.7104672703962,111.334275599562,15.0762791217476,-1.00698987741458,-28.7348329434413
4.37610357479734,0.16236665121472,-6.12876604023828,-5.65678492566973,-13.8919455246775,12.3111059302528,10.7533728910965,111.284324171708,14.9178189790217,-1.23952674374704,-28.929907349058
4.29545432671612,0.117009437383999,-5.9685943346139,-5.71938823445832,-13.9553934908466,12.5354106581404,10.7929241336328,111.228434506605,14.7547069552692,-1.47780370978062,-29.1257133205254
4.23838633269007,0.0744130484159991,-5.80426766059662,-5.77917548857527,-14.0223036098083,12.748159213452,10.8286619602328,111.165725969005,14.5853666190177,-1.71948266864624,-29.3221827209456
