Finger Velocity,Scap_X,Scap_Y,Scap_Z,Shoulder horiz abd-adduction,Shoulder flexion-extension,Shoulder internal-external rotation,elbow flexion-extension,forearm pronation-supination,wrist flexion-extension,wrist radial-ulnar deviation
1.63769114532401,-3.61556436123714,-19.3359306127057,17.5195196688926,-40.4612308108174,-46.4395464531564,-27.3085005678674,78.7934532195329,-30.9651479965471,12.4916427927823,-34.4183027971347
2.1505837109591,-3.67596830150843,-19.3673291242348,17.4573504325704,-40.4094858294059,-46.218947226933,-27.315743762569,79.1214234986589,-30.2279898560826,12.3422372385006,-34.3074256844797
2.72292972889166,-3.73914211404499,-19.4022432704274,17.3856690618685,-40.3422278320653,-45.9733311226673,-27.3194321684821,79.4945501420481,-29.4089955311403,12.2226905485827,-34.2217681441783
3.35038139984599,-3.80490131056447,-19.4407128587252,17.3039775410347,-40.2576495294343,-45.7016224695417,-27.319310051036,79.9146254242957,-28.505641087507,12.1284656321378,-34.1588160546459
4.02941380298917,-3.8730682202416,-19.4827312388242,17.2118070915468,-40.1539532918133,-45.4028712623524,-27.3151542601482,80.3831802823676,-27.5159806263072,12.0537629448786,-34.1151906783103
4.75657090283086,-3.94347918116592,-19.5282434643563,17.1087217824767,-40.0293774646319,-45.0762580459765,-27.3067729436501,80.9014530698622,-26.4387225757396,11.9917862727316,-34.0868789046529
5.52815455321071,-4.01599136947009,-19.5771455682961,16.9943221783471,-39.8822235177835,-44.7210955839941,-27.2940018039663,81.4703585968275,-25.2733083210033,11.935043354339,-34.0694824201565
6.34009580003539,-4.09048908033426,-19.629284885729,16.8682490342878,-39.7108835509061,-44.3368275338899,-27.2766978858711,82.0904578424608,-24.019991514921,11.8756593654854,-34.0584635045761
7.18791124057114,-4.16688929567581,-19.6844613019931,16.7301870531772,-39.5138676994226,-43.9230244831749,-27.2547310395191,82.7619289661684,-22.6799153466409,11.8056830562183,-34.0493677475736
8.06670426809102,-4.24514639239173,-19.7424292609735,16.5798687239301,-39.2898310061688,-43.479377807451,-27.2279733478582,83.4845405115679,-21.2551838531208,11.7173687292539,-34.0380083999956
8.97119287913371,-4.32525586463179,-19.8029003396118,16.4170782533135,-39.0375993257724,-43.00569189567,-27.1962869264849,84.2576279750261,-19.7489221694339,11.6034216447797,-34.0206026466151
9.89575477678827,-4.40725695432147,-19.8655461842993,16.2416555801947,-38.7561938059955,-42.5018753446963,-27.1595105846253,85.0800751604903,-18.1653196140769,11.4571992153853,-33.9938560577241
10.8344845059107,-4.49123410259646,-19.9300016183623,16.0535004256923,-38.4448534453006,-41.9679317433795,-27.1174458725304,85.9503019214746,-16.5096489280784,11.2728649604948,-33.9549971051553
11.7812592146416,-4.57731714730603,-19.9958677673289,15.8525762941312,-38.1030551727022,-41.4039506405358,-27.0698430422465,86.8662599523824,-14.7882550828592,11.0454961572036,-33.9017683373367
12.7298105323746,-4.66568019891307,-20.0627151009517,15.6389143039859,-37.730530853328,-40.8100992291192,-27.0163874373022,87.825438191915,-13.0085080515575,10.7711491178976,-33.8323842563064
13.6738005006349,-4.75653913350373,-20.1300863445129,15.4126166981989,-37.3272806088214,-40.1866151938762,-26.956686824369,88.8248791067042,-11.1787159045038,10.4468878646701,-33.7454679528022
14.6068997267865,-4.85014765272827,-20.1974992553979,15.1738598612593,-36.8935818685546,-39.5338010711337,-26.8902601978206,89.8612066168119,-9.30799748002281,10.0707826414116,-33.6399790678796
15.5228660659335,-4.94679188038851,-20.2644492879529,14.9228966569373,-36.4299936413759,-38.8520203594111,-26.8165286241165,90.930665725355,-7.40611743486746,9.64188436382485,-33.5151447569946
16.4156222320092,-5.04678349557339,-20.3304121796077,14.6600578955349,-35.9373556152475,-38.1416954991514,-26.7348087326776,92.029173090326,-5.48329023331035,9.16018007078538,-33.3704033210562
17.2793308252076,-5.15045144227057,-20.3948464879179,14.3857527429643,-35.4167818416689,-37.4033077154202,-26.6443094827541,93.1523769331241,-3.54996299520526,8.62653310798142,-33.205367417206
18.1084653556014,-5.25813230382648,-20.4571960968927,14.1004678968256,-34.8696489291684,-36.6373986004888,-26.5441328240823,94.2957239246807,-1.61658949413995,8.04261051899511,-33.0198106447105
18.8978759501592,-5.37015948447622,-20.5168926964141,13.8047653802408,-34.2975788501859,-35.8445732115914,-26.4332788142452,95.4545301135724,0.306591469955288,7.41079919700007,-32.8136781628753
19.6428485560551,-5.48685139490139,-20.5733582244403,13.4992788468111,-33.7024166617746,-35.0255043720131,-26.3106556563915,96.6240526245674,2.20976078297575,6.73411187882407,-32.587119104974
20.3391565980455,-5.60849889052539,-20.626007249465,13.1847083497096,-33.0862036522013,-34.1809377910702,-26.1750949785698,97.7995588066037,4.08369642117854,6.01608404553296,-32.3405360623088
20.9831042108902,-5.73535225738047,-20.6742492590451,12.8618135980515,-32.4511466397672,-33.3116975705625,-26.025372491581,98.976389765757,5.91991630969901,5.26066318958449,-32.07464495536
21.5715603472378,-5.86760807821393,-20.717490808686,12.5314057946262,-31.7995843456001,-32.4186916547533,-25.8602339380594,100.150015756421,7.71078294262245,4.47209268734608,-31.7905373543984
22.1019832541917,-6.00539633909124,-20.7551374776985,12.1943382119941,-31.1339519204644,-31.5029168085393,-25.6784259867706,101.316081653533,9.4495694479503,3.65479360516561,-31.4897368968523
22.5724350144316,-6.14876815426527,-20.7865955785864,11.8514957133862,-30.4567448176126,-30.5654627625165,-25.4787314454911,102.470441591955,11.1304895835678,2.81324894625585,-31.1742418846112
22.9815860563985,-6.29768449507421,-20.811273571814,11.5037834607112,-29.7704832597922,-29.6075152343233,-25.2600078866071,103.609182719324,12.7486961294859,1.95189574211011,-30.8465473327602
23.3287097484885,-6.45200630549253,-20.8285831424409,11.1521150788004,-29.0776785279764,-28.630357620769,-25.0212285289216,104.728638753742,14.3002532026608,1.07503065291256,-30.5096415326158
23.6136674000919,-6.61148636899379,-20.8379398974616,10.7974005677115,-28.3808021822654,-27.6353712498772,-24.7615240150367,105.825394607779,15.7820882740868,0.18673422621818,-30.1669743926459
23.8368841932133,-6.77576325448557,-20.8387636480596,10.4405342739523,-27.6822591153513,-26.6240341732883,-24.4802235728041,106.896283745212,17.1919293957436,-0.709182256316955,-29.8223971748789
23.9993167578508,-6.94435761013838,-20.8304782568085,10.0823832406695,-26.9843650649826,-25.5979185552846,-24.176893953373,107.938380203171,18.5282326345077,-1.60920519634045,-29.4800754791442
24.1024132778501,-7.11667099316587,-20.8125110607512,9.72377624545438,-26.2893289086672,-24.5586867708098,-23.8513744944088,108.948987329098,19.7901041143331,-2.51012238418605,-29.1443792525134
24.1480671672579,-7.29198732781211,-20.784291928143,9.36549379102975,-25.599239758782,-23.5080863645423,-23.5038066623478,109.925625222356,20.9772204242671,-3.40900430709488,-28.8197551457894
24.1385654860979,-7.46947698656244,-20.7452520684806,9.00825923011381,-24.9160585946795,-22.4479440524103,-23.1346564931413,110.866018644009,22.0897504709405,-4.30316743111586,-28.5105876858578
24.0765333650745,-7.64820340543752,-20.6948227902346,8.65273108176395,-24.2416139384695,-21.3801589675583,-22.7447284965805,111.768086817504,23.1282811692308,-5.19012532914819,-28.2210564443229
23.9648757774421,-7.82713208097693,-20.6324344805791,8.29949645281057,-23.5776009278315,-20.3066953584843,-22.3351698226533,112.629936152069,24.0937487113359,-6.06753428753061,-27.9549965990388
23.8067180301452,-8.00514175410973,-20.5575161456364,7.94906536015397,-22.925583076795,-19.2295749322361,-21.907463809574,113.449856532202,24.9873765613992,-6.93313999793219,-27.71576997102
23.6053463430523,-8.18103756050647,-20.4694958709708,7.60186571062702,-22.2869960410383,-18.1508690048305,-21.4634124506589,114.226321464424,25.8106208032247,-7.78473119404909,-27.5061528034055
23.3641498433334,-8.35356591134146,-20.3678025289829,7.25823875590646,-21.6631527921616,-17.0726905816893,-21.0051078279902,114.957992065812,26.5651230291811,-8.62010475898443,-27.3282453238616
23.0865652216125,-8.52143085327641,-20.2518689896916,6.91843496980547,-21.0552497161003,-15.9971864357571,-20.5348931208492,115.643724611418,27.2526706139167,-9.43704510829759,-27.1834066294083
22.7760251787867,-8.68331163518529,-20.1211370129574,6.58261043876062,-20.4643732533669,-14.9265291606292,-20.0553143342203,116.282581125254,27.8751639881569,-10.233318825233,-27.0722168225399
22.4359116403068,-8.83788118172488,-19.975063929902,6.25082397518098,-19.8915067812277,-13.8629090439501,-19.569064345122,116.873842305277,28.4345904169818,-11.0066838991365,-26.9944668039308
22.0695145330864,-8.98382514427425,-19.8131311587063,5.92303524739594,-19.3375374952278,-12.8085254586568,-19.078921202826,117.417021910025,28.9330037485594,-11.7549116982544,-26.9491748333891
21.6799967156655,-9.11986117168905,-19.6348545387563,5.59910427106478,-18.8032630699329,-11.7655773538067,-18.5876828495476,117.911881576773,29.3725095564933,-12.4758190168748,-26.9346279455416
21.2703654331685,-9.24475802053044,-19.4397964042304,5.27879262517819,-18.2893978671914,-10.7362523800067,-18.0981005737114,118.358444877297,29.7552550007297,-13.1673070944311,-26.9484455274619
20.8434504446338,-9.35735411270115,-19.2275792551526,4.96176673822435,-17.7965784475569,-9.72271421501513,-17.6128135737846,118.757009298402,30.0834225989728,-13.8274043329432,-26.9876618011361
20.4018887519631,-9.45657515382604,-18.997900822198,4.64760353497278,-17.3253681726877,-8.72708774780978,-17.1342869739113,119.108154847098,30.3592270097105,-14.4543095074208,-27.0488235816412
19.9481156576031,-9.54145045074369,-18.7505502593231,4.33579864449371,-16.876260776347,-7.75144190832391,-16.6647554701207,119.412748160546,30.5849139435785,-15.0464325840269,-27.1280995163625
19.4843617019328,-9.61112760845757,-18.4854251323011,4.02577725301825,-16.4496828987597,-6.79777006717695,-16.2061745039465,119.671941293105,30.7627604359796,-15.6024308284316,-27.22139708511
19.01265488933,-9.66488534000632,-18.2025487998822,3.7169075507434,-16.0459956858139,-5.86796805736868,-15.7601804912145,119.887164668142,30.8950758721197,-16.1212386015978,-27.3244839121162
18.5348275097432,-9.70214418108852,-17.9020877070027,3.40851657863752,-15.6654956358949,-4.96380998959323,-15.328061212616,120.060113971944,30.9842033087488,-16.6020899356016,-27.433110267923
18.0525268029701,-9.72247496045507,-17.5843680225497,3.09990813593165,-15.3084149356475,-4.08692216195265,-14.9107370278189,120.192731026022,31.0325207694962,-17.0445335494115,-27.5431299043875
17.5672286950817,-9.72560493407294,-17.2498909502801,2.79038226465799,-14.9749215622004,-3.23875553076548,-14.5087531378322,120.287178905021,31.0424422866489,-17.4484404051709,-27.6506165614433
17.0802538565734,-9.71142154451273,-16.8993459222288,2.47925569019807,-14.6651194369015,-2.42055743555824,-14.1222827266471,120.345811769994,31.0164184957,-17.814004261403,-27.751973659415
16.5927853830554,-9.67997381691769,-16.5336207797964,2.16588248508243,-14.3790488894879,-1.63334354569701,-13.7511404880125,120.371140069748,30.9569365574491,-18.1417359611947,-27.8440348660037
16.1058874726475,-9.63147144879641,-16.1538080127275,1.84967416775074,-14.1166876264563,-0.87787125780999,-13.3948057921428,120.365791937273,30.8665191153246,-18.4324523815622,-27.9241533816719
15.6205245596037,-9.5662816902641,-15.7612061959703,1.530118468331,-13.8779522826154,-0.154615957641603,-13.0524545505869,120.332471769748,30.7477219202664,-18.6872610483866,-27.990277903254
15.1375804508401,-9.48492414118426,-15.3573159260394,1.20679608013799,-13.6627004751132,0.536248359266133,-12.7229986571323,120.273917113997,30.6031296837956,-18.9075413767563,-28.0410133139384
14.6578770917664,-9.38806361179857,-14.9438297702409,0.879394841389809,-13.4707331228454,1.19486264520172,-12.4051317003238,120.192855075889,30.4353496742478,-19.0949233032415,-28.0756642369331
14.1821926527569,-9.27650120826556,-14.522615969484,0.547720935371927,-13.3017967166938,1.82168923603654,-12.0973794863825,120.091959527408,30.2470025896148,-19.2512637197849,-28.094259716712
13.7112786729727,-9.1511638193781,-14.0956958629097,0.211706848221819,-13.1555852652253,2.41751016538989,-11.7981538165561,119.973810382718,30.0407103401245,-19.3786206502144,-28.0975575016204
13.2458760221381,-9.01309219228172,-13.6652152309698,-0.128584031733939,-13.0317417534742,2.98341676049319,-11.5058079307062,119.840856126504,29.819080521899,-19.4792246602643,-28.0870267469792
12.7867294443325,-8.86342777646452,-13.2334099962916,-0.47295617342994,-12.9298590606805,3.52079036811651,-11.2186920321219,119.695380590867,29.5846874974097,-19.5554467087751,-28.064808483025
12.3346004345657,-8.7033984739926,-12.8025669907911,-0.821083948177468,-12.8494803493391,4.03127450215108,-10.9352073335305,119.539474713986,29.3400500804971,-19.6097616130583,-28.0336539074857
11.8902781747475,-8.5343033778845,-12.3749807820424,-1.1725168359561,-12.7900989694351,4.51673913001818,-10.6538571324765,119.375013720005,29.0876058676396,-19.644706503702,-27.9968414349437
11.4545882280994,-8.35749655316637,-11.9529078091133,-1.5266876060211,-12.7511579194688,4.97923820246731,-10.3732935571652,119.203639875929,28.8296823115713,-19.6628340318542,-27.9580744152944
11.0283986684806,-8.17436995143505,-11.5385192522351,-1.88292321030594,-12.732048863253,5.42096183550333,-10.0923587977729,119.02675074056,28.5684647530288,-19.666660622303,-27.92136247252
10.6126233122796,-7.98633565200123,-11.1338541285857,-2.24045806200855,-12.73211063817,5.84418474950548,-9.81011981468716,118.845492653089,28.3059618481631,-19.6586106851107,-27.8908904327486
10.2082217341268,-7.79480775904936,-10.740774103646,-2.59844931220397,-12.750627148628,6.25121269567596,-9.52589569039014,118.660759129015,28.0439691463427,-19.6409583185515,-27.8708796871872
9.81619579194426,-7.60118440445214,-10.3609214748355,-2.95599367181166,-12.7868245486352,6.64432869119767,-9.23927697077344,118.473193825464,27.784031935443,-19.6157685648424,-27.8654474582161
9.43758246923703,-7.4068303691772,-9.99568169692147,-3.31214527746487,-12.8398676878425,7.02574090128971,-8.95013650926957,118.283197781684,27.5274088168026,-19.5848406535613,-27.8784697206983
9.07344296927372,-7.21306083007572,-9.6461516225083,-3.66593410917543,-12.9088559227826,7.39753387774093,-8.65863148630255,118.090940716217,27.2750377501189,-19.5496558222125,-27.9134533874647
8.72484817103661,-7.02112667513733,-9.31311433557731,-4.01638453742947,-12.9928185672913,7.76162459758431,-8.36519647637112,117.896376252247,27.0275064797546,-19.5113321607835,-27.9734227271837
8.39286078101098,-6.83220173264984,-8.99702114811554,-4.36253365972161,-13.0907104394225,8.1197244398501,-8.07052772290468,117.699261004032,26.7850292714703,-19.4705884558992,-28.0608238828209
8.07851478240675,-6.64737215193506,-8.69798109199097,-4.70344913083342,-13.2014081005861,8.47330798425756,-7.77555914281305,117.499177420811,26.5474316935812,-19.4277182867161,-28.1774499897855
7.78279307929088,-6.46762806983887,-8.41575807800708,-5.03824619003034,-13.3237074318897,8.82358931819363,-7.48143095573196,117.295560107559,26.3141447324023,-19.3825748102994,-28.3243880174674
7.50660452955867,-6.29385760032373,-8.1497757617377,-5.36610357239775,-13.4563231560407,9.17150634013814,-7.18945216210458,117.087725070513,26.0842088956838,-19.3345659487024,-28.5019872785559
7.25076181470279,-6.12684308823919,-7.89913001582227,-5.68627798824493,-13.5978908315436,9.51771331538676,-6.90105834653409,116.874901089313,25.8562883019592,-19.2826591993789,-28.7098486391535
7.01596174863734,-5.96725946406833,-7.66260876606696,-5.99811686770612,-13.7469717541384,9.86258169767215,-6.61776642879917,116.656262293895,25.6286942639531,-19.2253951096482,-28.9468328114624
6.8027696172611,-5.81567442562237,-7.43871881887263,-6.30106908655759,-13.9020611037103,10.2062090161038,-6.34112801225614,116.430961037242,25.3994176127854,-19.1609085691664,-29.2110857273089
6.61160890582372,-5.67255007491221,-7.22571918910547,-6.5946933997245,-14.0615995654013,10.5484354403029,-6.07268292419439,116.198160267462,25.1661688961595,-19.0869573791486,-29.5000788929854
6.4427572796349,-5.53824558018196,-7.02166031462882,-6.87866430309865,-14.2239885279582,10.8888674420572,-5.8139144691227,115.957064763145,24.926425496782,-19.0009578897852,-29.8106627496822
6.29634895111133,-5.41302042923592,-6.82442839935018,-7.1527750322329,-14.3876088133266,11.2269077473022,-5.56620785701167,115.70695074943,24.6774845982842,-18.9000276986724,-30.1391312505473
6.17238267338018,-5.29703788663063,-6.63179395652449,-7.41693741838575,-14.5508427064562,11.5617905322475,-5.33081320275304,115.447193524069,24.4165207926299,-18.781035384495,-30.4812959666555
6.070733693538,-5.19036834580739,-6.44146343826149,-7.67117838998421,-14.7120988310624,11.8926205904695,-5.10881436606338,115.177292793559,24.1406470166898,-18.6406569978589,-30.8325680039232
5.99116726574841,-5.09299235844272,-6.25113265307732,-7.91563304218093,-14.8698391676862,12.2184150146621,-4.90110464976963,114.896895452829,23.8469774514025,-18.4754385823672,-31.1880459109672
5.93335095305443,-5.00480321845969,-6.05854051456193,-8.15053439118659,-15.0226072588027,12.5381458391624,-4.70836996331756,114.605815520694,23.5326910170686,-18.2818634390479,-31.542607677436
5.89686306920102,-4.92560908199473,-5.86152156043194,-8.37620016686207,-15.1690564379503,12.850782113099,-4.5310795456227,114.304050862606,23.1950941315584,-18.0564222976381,-31.8910049067865
5.8811952581326,-4.85513473107405,-5.65805565492234,-8.59301724745272,-15.3079768105965,13.1553300136661,-4.36948388123888,113.991796233064,22.8316814291969,-17.7956841395993,-32.2279572843976
5.88574828613584,-4.7930232462608,-5.44631334069868,-8.80142456399669,-15.4383197217518,13.4508698110076,-4.22361915483334,113.669452116595,22.4401931459631,-17.4963652191691,-32.5482455422836
5.90982142759086,-4.73883801824365,-5.22469542907195,-9.00189545818637,-15.5592185433157,13.7365886925575,-4.09331744815096,113.337628879693,22.0186678709584,-17.1553938948521,-32.8468012591367
5.95259709583951,-4.69206563721147,-4.99186560439816,-9.19492053047522,-15.670004778321,14.0118086074955,-3.97822179693702,112.997145870206,21.5654893703362,-16.769969209491,-33.1187920324582
6.01312334692019,-4.65212019448428,-4.74677506783924,-9.38099194638713,-15.7702187061512,14.2760084118415,-3.87780515211369,112.649025293746,21.0794262358266,-16.3376116958525,-33.3597007963024
6.09029737870155,-4.61834941339622,-4.48867854279302,-9.56058999456151,-15.8596140758759,14.528839723965,-3.79139226004985,112.294480932865,20.5596632323581,-15.856205568417,-33.5653983019452
6.18285309085991,-4.59004284502311,-4.21714128592911,-9.7341724527392,-15.9381566688353,14.7701360793528,-3.71818352496212,111.934902032222,20.0058234468858,-15.3240322048917,-33.7322080044153
6.28935521850748,-4.56644217142246,-3.93203707675421,-9.90216705865412,-16.0060168528488,14.9999152145965,-3.6572800284536,111.571832915698,19.4179806375582,-14.7397955020146,-33.8569627913651
6.40820166057819,-4.54675348837278,-3.63353748868566,-10.0649671274064,-16.0635564914957,15.2183745992604,-3.60770900832545,111.206949072327,18.7966614520858,-14.1026401684688,-33.9370531309309
6.53763459820088,-4.53016130267026,-3.3220930778444,-10.2229301185011,-16.1113107439847,15.4258806545279,-3.56844920420102,110.842030514831,18.1428373826343,-13.4121642056605,-33.9704662473934
6.67576003396983,-4.51584386099579,-2.99840746868008,-10.3763787390278,-16.1499654420011,15.6229524419466,-3.538455557718,110.478933207268,17.4579065144953,-12.6684267469699,-33.9558158071629
6.82057462259218,-4.50298930813933,-2.66340565837726,-10.525603984241,-16.1803309061773,15.8102409472986,-3.51668282271269,110.119559332832,16.7436653712231,-11.8719521693994,-33.8923613495552
