Finger Velocity,Scap_X,Scap_Y,Scap_Z,Shoulder horiz abd-adduction,Shoulder flexion-extension,Shoulder internal-external rotation,elbow flexion-extension,forearm pronation-supination,wrist flexion-extension,wrist radial-ulnar deviation
0.793257763473055,-5.91732775695657,-19.4659363128938,1.43536088209777,-29.7687242442409,-63.7889638474888,-15.0497221194575,87.5446750676255,-43.6106677194326,6.76588306436414,-35.731504262945
0.999105828486112,-5.91240625543677,-19.4836133216045,1.45323909937522,-29.7645815465297,-63.8000065098059,-15.0303951054431,87.546563589283,-43.6527834573438,6.53264274509317,-35.4340942531937
1.23135185612609,-5.90748493699689,-19.499024420448,1.46903367873989,-29.7645796308297,-63.8170728496386,-15.0140886518021,87.5583648667509,-43.6860413282769,6.28729963271683,-35.1332849632827
1.48650347733521,-5.90255633592636,-19.5120855925726,1.48235213136546,-29.7676417846281,-63.8396641337439,-14.9997912970166,87.5806101005275,-43.7079545079133,6.02894340639849,-34.8298262189996
1.76172811232538,-5.89761056064958,-19.5227168346528,1.49277517838386,-29.7724527021598,-63.8671568880317,-14.9862953406453,87.6137115709193,-43.71595680544,5.75646612934583,-34.5242162420579
2.05442201135822,-5.89263570552472,-19.530842659836,1.49986212636842,-29.7774595376196,-63.898801986629,-14.9721992101284,87.6579443096149,-43.7074373201775,5.46856136401486,-34.2166709546795
2.36199498468915,-5.88761802486564,-19.5363934615952,1.50315768780454,-29.7808785336288,-63.9337247976035,-14.9559146572789,87.7134285442166,-43.6797768351498,5.16373101221348,-33.9071028664884
2.68176791598504,-5.88254186973377,-19.5393076890285,1.50220010051076,-29.7807078761937,-63.9709264799335,-14.9356793480363,87.780113299847,-43.6303851968992,4.84030038402252,-33.5951105599679
3.01093064446167,-5.87738940219035,-19.5395347386593,1.49653034124144,-29.7747474004766,-64.0092865364674,-14.9095753500592,87.8577615772959,-43.5567389310094,4.49644169823388,-33.2799792727343
3.3465341062384,-5.87214011197703,-19.5370384277262,1.48570217297598,-29.7606256768787,-64.0475667389012,-14.8755539129727,87.9459375467968,-43.45641836882,4.13020585583697,-32.9606925186235
3.68550332412455,-5.86677016813435,-19.5318008796163,1.4692927153185,-29.7358348306197,-64.0844165525338,-14.8314667705437,88.0439961931115,-43.3271436090796,3.73956200773286,-32.6359541934961
4.02466396183481,-5.86125164508587,-19.5238266229203,1.44691318664712,-29.6977731939276,-64.1183801985149,-14.7751039788505,88.1510758200173,-43.1668086995713,3.32244419914821,-32.3042202282026
4.3607781752595,-5.85555167022501,-19.5131466807761,1.41821943886351,-29.6437955723284,-64.1479054977112,-14.7042380485867,88.2660937740225,-42.973513485453,2.87680415343298,-31.9637385565888
4.69058701440567,-5.84963154683365,-19.4998224072612,1.38292189390832,-29.5712705389882,-64.1713546428536,-14.6166738356337,88.3877456824085,-42.7455926202462,2.40066895205857,-31.6125958968918
5.0108574128088,-5.84344590980144,-19.4839488158789,1.34079449806875,-29.4776437630948,-64.1870170438233,-14.510303318548,88.5145084232573,-42.4816412627211,1.8922019465687,-31.2487695730363
5.31843221177676,-5.83694197034038,-19.4656571464264,1.29168233679209,-29.3605059409431,-64.1931243825114,-14.3831640152906,88.6446469607436,-42.1805369901465,1.3497647996339,-30.8701823777197
5.61028188656282,-5.83005889972796,-19.4451164338675,1.23550759837265,-29.2176634512846,-64.1878679955521,-14.2334993891163,88.7762250968302,-41.841457462878,0.771978239187728,-30.474758377925
5.88355676392341,-5.82272739270325,-19.422533876244,1.17227363643986,-29.0472094295329,-64.169418672855,-14.0598191960867,88.9071201206374,-41.4638934031641,0.157778999677154,-30.060477613767
6.13563859478788,-5.81486944122017,-19.3981538443387,1.10206695378821,-28.8475925853178,-64.1359489171546,-13.8609573759394,89.0350412867379,-41.0476565253056,-0.493529486320908,-29.6254278193789
6.36419039817479,-5.80639834220061,-19.3722554266219,1.02505700780767,-28.6176808131879,-64.0856576575087,-13.6361248280513,89.1575520257798,-40.5928821871768,-1.18223482755809,-29.1678515687619
6.56720353653942,-5.79721896029005,-19.3451484538997,0.941493816405964,-28.3568165031057,-64.0167973466736,-13.3849542828091,89.2720957785867,-40.1000267234708,-1.90818363317574,-28.6861875995049
6.74304102440003,-5.78722826489968,-19.3171680035934,0.851703423622927,-28.0648604776982,-63.9277032859985,-13.1075345030103,89.3760253317286,-39.5698596540485,-2.67076097584204,-28.1791054681849
6.89047611242938,-5.7763161530636,-19.2886674559943,0.75608137010438,-27.7422216956759,-63.8168248918241,-12.8044312501399,89.46663549847,-39.0034512100432,-3.4688820572142,-27.6455331094938
7.00872522572925,-5.76436655195341,-19.2600102719958,0.655084406141113,-27.389870290616,-63.6827584330281,-12.4766928471044,89.5411989196442,-38.4021558515791,-4.30099613559212,-27.0846772753098
7.09747436245459,-5.75125877008394,-19.2315607779057,0.549220777791865,-27.0093321760393,-63.524280539717,-12.12583878066,89.5970046512176,-37.7675926287716,-5.16510213386986,-26.4960371852131
7.15689806983698,-5.73686904183323,-19.2036743572042,0.439039495562209,-26.6026643316554,-63.3403815412478,-11.7538306142546,89.631399068627,-37.1016233380608,-6.05877479068473,-25.8794119711125
7.18767010004273,-5.72107219445166,-19.1766875298367,0.325119041115207,-26.1724109477754,-63.1302974892706,-11.3630254938914,89.641828472638,-36.4063294447548,-6.97919984499304,-25.2349025980339
7.19096479914263,-5.70374336564391,-19.1509084196921,0.20805596752026,-25.7215417685492,-62.893539606353,-10.9561136582675,89.6258826498615,-35.6839886895838,-7.92321657777057,-24.5629089126247
7.16844819203856,-5.68475971137011,-19.1266080682742,0.0884538075453455,-25.2533751394183,-62.6299198907135,-10.5360425103412,89.5813385368417,-34.9370521817458,-8.88736602600128,-23.8641223874538
7.12225759424622,-5.66400206130911,-19.104012967857,-0.0330873599028238,-24.7714893126268,-62.3395716918084,-10.1059308471265,89.5062030612226,-34.1681226091437,-9.86794330367927,-23.139515030168
7.05496842082584,-5.64135649902552,-19.0832990824957,-0.155980409242231,-24.2796263704567,-62.0229642336775,-9.66897764379409,89.3987541816062,-33.3799339780311,-10.8610527205032,-22.3903247886737
6.9695467088933,-5.61671586440954,-19.0645875146371,-0.279659536540607,-23.7815935762554,-61.6809102877873,-9.22837022776636,89.2575791147938,-32.5753330497524,-11.8626647410596,-21.6180376082834
6.86928579275133,-5.58998119594484,-19.047941872205,-0.403587378864011,-23.2811669938417,-61.3145664609583,-8.78719668652613,89.08160872505,-31.7572623994477,-12.8686741496231,-20.8243661589458
6.75772568506351,-5.56106314597169,-19.033367308528,-0.527260838516367,-22.7820018330126,-60.9254258371745,-8.34836692765698,88.8701470588701,-30.9287448039002,-13.8749589465603,-20.0112252408776
6.63855418876286,-5.52988340972204,-19.0208111507534,-0.650215623537357,-22.2875532528489,-60.5153029728648,-7.91454601852096,88.622895047714,-30.0928684866059,-14.8774394639631,-19.180704011463
6.51548979296666,-5.4963762073156,-19.0101649990297,-0.772029557015323,-21.8010103919799,-60.0863114872204,-7.4881023906042,88.3399674809786,-29.2527726175279,-15.8721370156218,-18.335035385012
6.39214817936025,-5.46048984758381,-19.0012681646274,-0.892324732609507,-21.3252453144969,-59.6408347138872,-7.07107233412424,88.0219024830745,-28.4116323947896,-16.8552311649154,-17.4765631779434
6.27189676342794,-5.42218838467357,-18.9939123168428,-1.01076860229589,-20.8627774778884,-59.1814900861215,-6.66514106113635,87.6696629149942,-27.5726430330387,-17.8231144277775,-16.6077078098099
6.15770495816143,-5.38145335531107,-18.9878472189311,-1.1270740784486,-20.415753345256,-58.7110881085286,-6.27163958386985,87.284629352682,-26.7390020445751,-18.7724429698783,-15.7309316138233
6.05200125300473,-5.33828555998474,-18.9827874410371,-1.24099872443013,-19.9859399496477,-58.2325869237657,-5.89155580743256,86.868584555736,-25.9138893182637,-19.7001817312307,-14.8487049654321
5.95655083468882,-5.29270682830553,-18.9784199339593,-1.35234310378233,-19.574730614995,-57.7490436138922,-5.52555760841422,86.4236896162548,-25.1004446763328,-20.6036425295315,-13.9634744125782
5.87236821364077,-5.24476168964035,-18.9744123298065,-1.46094836036483,-19.183160664133,-57.2635634768461,-5.17402527676836,85.9524522563831,-24.3017428119886,-21.4805140357359,-13.0776337982987
5.7996772338189,-5.19451885736504,-18.9704218072997,-1.56669310888877,-18.8119307966574,-56.779248574744,-4.83709053413228,85.4576880090325,-23.5207657547325,-22.3288829535976,-12.1934990977081
5.73792572566649,-5.14207243191243,-18.96610432371,-1.66948972613466,-18.4614358695687,-56.299146856096,-4.51467938712124,84.9424752529149,-22.7603732406511,-23.1472461454151,-11.3132874328864
5.68585475007701,-5.087542735217,-18.9611239756096,-1.7692801482147,-18.1317970115217,-55.8262031149028,-4.20655628916031,84.4101052675248,-22.0232715569913,-23.9345137726845,-10.4391005131118
5.64161462576747,-5.03107670381315,-18.9551622150724,-1.86603129797818,-17.8228952891621,-55.3632129738258,-3.91236741329977,83.864028619625,-21.3119815776287,-24.6900037703952,-9.57291256345666
5.60291375774163,-4.97284778453723,-18.9479266280828,-1.95973028562651,-17.5344054710848,-54.9127809689203,-3.63168122643095,83.3077992892241,-20.6288068169783,-25.4134281885008,-8.71656263120309
5.5671831680586,-4.91305529280695,-18.9391589836334,-2.05037954020056,-17.2658287650091,-54.4772836719139,-3.36402496367877,82.7450179902123,-19.9758024145489,-26.104872156794,-7.87175097852277
5.53173996060947,-4.85192320864908,-18.928642283295,-2.13799203620521,-17.0165237139879,-54.0588386167528,-3.10891600596606,82.1792761374292,-19.3547460214582,-26.7647664891517,-7.04003905564732
5.49393603980436,-4.78969839972657,-18.9162065789474,-2.22258677570815,-16.7857347152683,-53.6592796028109,-2.86588754349028,81.6141018585181,-18.7671115885679,-27.3938552247954,-6.22285230339165
5.45128295056866,-4.72664827321641,-18.9017333803035,-2.30418467048322,-16.5726178631411,-53.2801387305642,-2.63450824509589,81.0529093510157,-18.2140470508401,-27.99315960478,-5.42148485286323
5.40154839835539,-4.66305787125011,-18.8851585400358,-2.38280494272232,-16.3762640073343,-52.922635298041,-2.41439593783552,80.4989527503913,-17.6963568626101,-28.5639399635218,-4.6371052082298
5.34282392095147,-4.59922644119481,-18.8664735724498,-2.45846213194032,-16.1957190555599,-52.5876714690043,-2.20522553241196,79.9552855095744,-17.2144902577976,-29.1076567476734,-3.87076223768821
5.27356591090062,-4.53546353494653,-18.8457254197483,-2.53116376806638,-16.0300016342739,-52.2758344375788,-2.00673161668707,79.4247261021981,-16.7685359786241,-29.6259314686325,-3.12339114459163
5.19261373658009,-4.47208472098644,-18.8230147201136,-2.60090875387064,-15.878118265169,-51.9874046713291,-1.81870629103426,78.9098306618597,-16.3582240325644,-30.1205079921025,-2.39581941660559
5.0991893227295,-4.4094070260931,-18.798492654819,-2.66768649491571,-15.7390762307499,-51.7223697159781,-1.64099294219596,78.4128729715782,-15.9829348090217,-30.5932142723168,-1.68877297918303
4.99288253862604,-4.34774425208669,-18.7723564710682,-2.7314768121885,-15.6118943080637,-51.4804429735551,-1.47347674717076,77.9358320285882,-15.641715631327,-31.0459245218383,-1.00288287037524
4.87362638396396,-4.28740232632799,-18.7448438131703,-2.79225065567986,-15.4956115619326,-51.2610867942597,-1.31607276292152,77.4803872272575,-15.3333045487338,-31.4805218773287,-0.338692714541516
4.74166546673774,-4.22867483808949,-18.7162260533974,-2.84997159841795,-15.389294414203,-51.0635391354573,-1.16871248760415,77.0479210214633,-15.0561608970458,-31.8988617888244,0.303332829314367
4.59752076879285,-4.1718388912369,-18.6868008792829,-2.90459803613952,-15.2920422363374,-50.8868429514393,-1.03132977117108,76.6395287447277,-14.8085018933326,-32.30273652261,0.922798566335232
4.44195327188923,-4.11715137662991,-18.6568844413731,-2.95608596163437,-15.2029917374579,-50.7298774123214,-0.903846908249184,76.2560350837671,-14.5883442996705,-32.6938413039579,1.51936822289537
4.27592871427983,-4.0648457428867,-18.6268033781689,-3.00439213753276,-15.1213204314483,-50.5913900314051,-0.786161670431082,75.8980165266618,-14.3935499989688,-33.07374275332,2.09275297936139
4.1005855937507,-4.01512932485409,-18.5968870090208,-3.0494774669488,-15.0462494601218,-50.4700288162673,-0.678135935357554,75.565828953707,-14.2218741710026,-33.4438503529943,2.64269930589486
3.91720855615537,-3.96818127510989,-18.5674599260371,-3.09131036512863,-14.9770460182684,-50.3643736481308,-0.579586447480103,75.2596394183775,-14.0710146496982,-33.8053916513743,3.16897639901598
3.72720954743343,-3.92415113283394,-18.5388351342625,-3.12986996756429,-14.9130255669185,-50.2729662265102,-0.490278099745269,74.9794610817335,-13.9386610067488,-34.159391759485,3.6713635304594
3.53211961798171,-3.8831580529957,-18.511307802791,-3.16514906129555,-14.8535539410149,-50.1943380718941,-0.409919963759463,74.7251902149816,-13.8225419566436,-34.506657499006,4.14963760586941
3.33359512528897,-3.84529070334117,-18.4851496201025,-3.1971566786667,-14.7980493767924,-50.1270362286758,-0.338164134452978,74.4966441690595,-13.7204698084552,-34.8477664177665,4.60356123006264
3.13344336214782,-3.81060781468095,-18.460603715724,-3.22592032926025,-14.7459844247431,-50.0696464233177,-0.274607310880712,74.2935992236573,-13.6303808784538,-35.1830608269275,5.03287160343627
2.93367437050511,-3.77913934233188,-18.4378801237168,-3.25148785940811,-14.6968876870479,-50.0208134963868,-0.218794916777161,74.1158272677505,-13.550370996452,-35.5126469872533,5.43727061427658
2.73658769975561,-3.75088816780293,-18.4171518053936,-3.27392892667121,-14.6503453184944,-49.9792589556563,-0.170227472819413,73.9631303267635,-13.4787254615601,-35.8363995163539,5.81641651904503
2.54490432012288,-3.72583224575473,-18.3985512917557,-3.29333607147108,-14.6060022428283,-49.9437955174499,-0.128368862572528,73.8353720360512,-13.4139430138848,-36.153970984464,6.16991760869142
2.36195240724317,-3.70392708555377,-18.3821680317076,-3.30982536719458,-14.5635630498761,-49.913338532735,-0.0926560810209404,73.7325052656133,-13.3547535834419,-36.4648065388913,6.497328250253
2.19190540096001,-3.68510844942911,-18.3680465381052,-3.32353663381117,-14.5227925480271,-49.8869142354714,-0.0625100154605598,73.6545952259241,-13.3001297568471,-36.7681632694927,6.79814766771869
2.04003970414393,-3.66929514789635,-18.3561854175906,-3.33463320543361,-14.4835159528382,-49.8636647979136,-0.0373467824219387,73.601837526416,-13.2492920663845,-37.0631338904167,7.07182176755417
1.91291043181329,-3.65639181545288,-18.3465373590209,-3.34330124789314,-14.4456186960643,-49.8428502264242,-0.0165891309931767,73.5745708084816,-13.2017083568606,-37.3486741486679,7.31774820943843
1.81823297365935,-3.64629155512335,-18.3390101420996,-3.34974862906372,-14.4090458383309,-49.8238471800317,0.000322576739015489,73.5732837214918,-13.1570876292412,-37.623633177225,7.53528477444912
1.76417529403238,-3.63887835044291,-18.3334687126375,-3.35420335262561,-14.3738010625036,-49.8061448413588,0.0139202788414707,73.5986161439364,-13.1153688984097,-37.8867858088132,7.72376090549409
1.75791676687473,-3.63402915939257,-18.3297383514503,-3.35691157390433,-14.3399452167936,-49.7893380159217,0.0246994466603528,73.6513546730235,-13.0767057215436,-38.1368656959055,7.88249211457561
1.80388842731055,-3.63161562721295,-18.3276089355108,-3.35813522386717,-14.3075943697779,-49.7731176847293,0.0331119897192265,73.7324225219985,-13.0414471270726,-38.3725979973182,8.01079680443896
1.90269603607767,-3.63150538307878,-18.3268402472837,-3.35814927581652,-14.2769173341149,-49.7572592917099,0.0395610819482398,73.8428640794693,-13.0101156849319,-38.5927304261093,8.10801496139831
2.05146737351041,-3.63356291729787,-18.3271682286228,-3.3572387004931,-14.2481326113367,-49.7416091146466,0.0443980367655297,73.9838244980481,-12.9833834141784,-38.7960615972017,8.17352813590805
2.24528660485914,-3.63765006817688,-18.3283120031986,-3.35569516892524,-14.221504707779,-49.7260691420831,0.0479212273197176,74.1565247878006,-12.9620461469868,-38.9814658329806,8.20678011886408
2.4787292774602,-3.64362617713798,-18.3299814198458,-3.3538135761473,-14.1973397731062,-49.7105809454553,0.0503769216672313,74.3622329913314,-12.9469968822192,-39.147913849926,8.20729773213567
2.74684109410073,-3.65134799259673,-18.3318848178154,-3.35188847028215,-14.1759805188111,-49.6951090774887,0.0519617968444484,74.6022321102161,-12.9391985857845,-39.2944890267704,8.17471117303116
3.04550672442096,-3.66066941457706,-18.3337366955963,-3.35021047898513,-14.1578003848549,-49.6796245357124,0.0528268227668036,74.8777855358142,-12.9396568406938,-39.4203992101659,8.10877337476073
3.37143767007925,-3.67144117340747,-18.3352649749114,-3.34906282820343,-14.1431969386848,-49.6640888094767,0.0530821694608985,75.1901008115867,-12.9493927204626,-39.5249842262815,8.00937786303658
3.72200025028769,-3.68351052949585,-18.3362175807215,-3.3487180457157,-14.1325845117667,-49.6484389908976,0.0528027849550479,75.5402926189003,-12.9694162523229,-39.6077194317503,7.87657460488772
4.09501212086487,-3.69672106929386,-18.3363681000353,-3.34943493322889,-14.1263861023252,-49.6325743796997,0.0520343103108595,75.9293459300882,-13.0007008448371,-39.6682157551937,7.71058336717913
4.48856219641321,-3.7109126566984,-18.335520335698,-3.35145587604114,-14.1250245969442,-49.616344947795,0.0507990372880309,76.3580803040201,-13.0441590679486,-39.7062167486733,7.51180413776271
4.90086971649714,-3.72592158092149,-18.3335116361175,-3.35500453959761,-14.1289133876348,-49.5995419498184,0.0491016670573899,76.8271163044762,-13.1006201819628,-39.7215931839749,7.28082421345694
5.33018178259492,-3.74158092328421,-18.3302149543496,-3.36028398045985,-14.1384464854509,-49.5818908740049,0.0469346893930995,77.3368449975577,-13.170809809964,-39.7143356987375,7.01842162069502
5.77470343575772,-3.75772114871095,-18.3255396610265,-3.36747517910175,-14.1539882570063,-49.5630468327349,0.0442832661913897,77.8874014308112,-13.2553321350356,-39.6845459467922,6.72556460497713
6.23255364587196,-3.77417091434973,-18.3194311969655,-3.37673598526146,-14.1758629373735,-49.5425924015496,0.0411295666060354,78.4786429148837,-13.3546549794574,-39.6324266631053,6.40340700804368
6.70174139951279,-3.79075807739919,-18.311869700703,-3.38820045205719,-14.2043441030958,-49.5200378313802,0.037456559565197,79.110132820914,-13.4690980873054,-39.558271024442,6.05327944720526
7.18015718918325,-3.80731087572995,-18.3028677835886,-3.40197852166323,-14.2396443210396,-49.4948234826044,0.0332513201094003,79.7811304759846,-13.5988248827398,-39.4624516683849,5.67667631842644
7.66557621054754,-3.82365924776544,-18.292467648616,-3.4181560139757,-14.2819052184981,-49.4663242658428,0.0285079460447299,80.4905875860383,-13.7438379088245,-39.3454097330497,5.27523877005764
8.15567037028025,-3.83963625229019,-18.2807377589899,-3.43679486179904,-14.3311882434134,-49.4338558256933,0.0232302068922514,81.2371514411406,-13.9039780598131,-39.2076443106101,4.85073394569585
8.64802680812632,-3.85507954409869,-18.2677692628905,-3.45793353240317,-14.3874663972812,-49.3966821676237,0.0174340545952455,82.0191749629583,-14.0789276028214,-39.0497027573444,4.40503096669153
9.14017108346486,-3.86983285761527,-18.2536723767922,-3.4815875760624,-14.4506172233146,-49.3540244023117,0.0111501138880722,82.8347334422375,-14.2682168509201,-38.8721723344703,3.94007429918812
9.62959350988049,-3.88374744845753,-18.2385729227233,-3.50775024718645,-14.5204173161119,-49.3050702651922,0.00442624129507133,83.6816475908913,-14.4712342113839,-38.6756736516071,3.45785532038621
10.1137773740428,-3.8966834435691,-18.2226092029814,-3.53639315247113,-14.5965385874441,-49.2489840620873,-0.00266980069745339,84.5575123065721,-14.6872392007278,-38.4608563732711,2.96038307642142
