Finger Velocity,Scap_X,Scap_Y,Scap_Z,Shoulder horiz abd-adduction,Shoulder flexion-extension,Shoulder internal-external rotation,elbow flexion-extension,forearm pronation-supination,wrist flexion-extension,wrist radial-ulnar deviation
0.313376890849375,-7.81901995828188,-44.9290260902686,2.65908855980736,-28.0954508509956,-9.66626414046281,11.9292153245246,62.2385675204931,-62.6267776824308,-8.18236914522645,-11.108213836581
0.415217474556667,-7.90808551895021,-44.8684036456678,2.62336159642987,-28.1292848838712,-9.68215598539753,11.9614497201472,62.1746354135139,-62.1444275212585,-8.38626357170955,-10.9961597036262
0.580535105580433,-8.00428407966454,-44.7982470066411,2.58037437044621,-28.1639118553903,-9.69230422022051,11.9958670419907,62.0856621489829,-61.5676404499168,-8.64454150045008,-10.8446076534348
0.787047956129882,-8.10669620700606,-44.7179500536903,2.5298521415991,-28.1985922922198,-9.69557393693986,12.0322459676289,61.9691846710916,-60.8939235060335,-8.9617708832449,-10.6486326379183
1.02391694203922,-8.21419939559621,-44.6269391576529,2.47161503555374,-28.2324975777439,-9.69082161395395,12.0703426525679,61.8229154743309,-60.1221945700004,-9.34233455057995,-10.4030676290861
1.28564241948681,-8.32547589297752,-44.5246795016746,2.40558667779,-28.2647203817665,-9.67691323907383,12.1098978690673,61.6447880625698,-59.2529240003077,-9.79034469284717,-10.1025669300032
1.56869845632495,-8.43902579114446,-44.4106814421884,2.331800599052,-28.2942880952068,-9.65274256994606,12.1506445843128,61.4329953254793,-58.2882524294396,-10.3095381837816,-9.74170530004363
1.87024240581977,-8.55318531060515,-44.2845070307229,2.25040405601161,-28.3201790002244,-9.61724898907312,12.1923157086155,61.186017575938,-57.2320758954639,-10.9031485321029,-9.31511957902623
2.18761460515036,-8.66615001189095,-44.1457767735023,2.16165899111558,-28.3413407418187,-9.56943446758228,12.2346516692212,60.9026370400095,-56.0900888180215,-11.5737505426277,-8.8176982083799
2.51813657646828,-8.77600249039128,-43.994176595328,2.06593996644345,-28.3567105156186,-9.50837925544898,12.2774073431342,60.5819360750492,-54.8697755572091,-12.3230748807529,-8.24482163341792
2.85903263067171,-8.88074395431594,-43.8294648287988,1.96372904131489,-28.3652362600117,-9.43325603801631,12.3203577416654,60.2232774176604,-53.5803427076499,-13.1517920002731,-7.59265275923162
3.20740815264729,-8.97832895084321,-43.6514789195298,1.85560771034055,-28.3658980495739,-9.34334241038719,12.3633017374927,59.8262663594493,-52.2325870171916,-14.0592686333325,-6.85847124368198
3.56025671760257,-9.06670238362085,-43.4601414637528,1.74224616169229,-28.3577288403155,-9.23803160871777,12.4060631201448,59.3906968155693,-50.8386977888292,-15.0433054350558,-6.0410384640837
3.91448324266107,-9.14383785360249,-43.255465192381,1.624390238421,-28.3398337220188,-9.1168415012556,12.4484883905458,58.9164855351989,-49.4119974645622,-16.0998712920908,-5.14097184458739
4.26693666079684,-9.20777626387346,-43.0375565789661,1.50284657766867,-28.3114068927186,-8.97942188619688,12.4904409586225,58.4036008136497,-47.9666292066846,-17.2228576095214,-4.16109870990044
4.61444840486018,-9.25666357241535,-42.8066178594027,1.37846646006083,-28.2717456877175,-8.82556016919089,12.5317917614212,57.8519935475422,-46.5172049705199,-18.4038833249677,-3.10675233547526
4.95387431244232,-9.28878656811074,-42.5629473853051,1.25212892585329,-28.2202611703556,-8.6551854999215,12.5724067263457,57.2615389237603,-45.0784311212404,-19.6321866066663,-1.98596831001762
5.28213822324487,-9.3026055939723,-42.30693836689,1.12472370842825,-28.1564850153297,-8.46837143511704,12.6121319116311,56.6319962236374,-43.664730584724,-20.8946399732321,-0.80953985763292
5.59627589312582,-9.29678325167887,-42.0390761748765,0.997134502393643,-28.0800726649774,-8.26533716886372,12.6507775137319,55.9629921977586,-42.2898806116338,-22.1759199120931,0.409101813575171
5.89347805515809,-9.27020829018504,-41.7599344500383,0.870223026531876,-27.9908029812727,-8.0464473398873,12.6881021968514,55.2540305479842,-40.9666835419901,-23.4588489424484,1.65420105886777
6.17113159558872,-9.22201409756816,-41.4701703057329,0.744814266975269,-27.8885748192494,-7.81221040045035,12.7237993404647,54.5045267721443,-39.7066847988178,-24.7249082474416,2.90818264195349
6.42685792004514,-9.15159146159914,-41.1705189026299,0.621683201597378,-27.7734010918662,-7.56327551662305,12.7574867922135,53.7138645755457,-38.5199481907797,-25.9548954591927,4.15232039451728
6.65854768204415,-9.05859551884743,-40.8617876331551,0.501543221925007,-27.6454009773818,-7.30042796054534,12.7887015417069,52.8814677296071,-37.4148940086152,-27.1296796449932,5.36751874951354
6.86439114133728,-8.94294705159215,-40.544850087208,0.385036391014939,-27.5047909413635,-7.02458294822082,12.81690039681,52.0068799580004,-36.3982008884754,-28.2309892467139,6.53513941754133
7.04290351814264,-8.80482849585795,-40.220639892835,0.272725608217994,-27.3518752108144,-6.73677787519772,12.8414672719134,51.089845220624,-35.4747684463986,-29.2421627335306,7.63779937020628
7.19294481225259,-8.64467517765277,-39.8901444495359,0.165088695667181,-27.1870362536032,-6.43816291321404,12.8617271333366,50.130381512632,-34.6477346054931,-30.1487974922824,8.66007222263384
7.31373366314888,-8.46316239203446,-39.5543985123705,0.0625143759841771,-27.0107256948735,-6.12998995378614,12.8769660479837,49.1288427306251,-33.9185395271781,-30.9392483093649,9.58904125496822
7.40485493754635,-8.2611889850355,-39.2144775523843,-0.0346999271828474,-26.8234559624816,-5.8135999155213,12.8864562072882,48.0859649523735,-33.2870271319055,-31.6049485369418,10.414674426456
7.46626084280309,-8.03985810205016,-38.8714908148327,-0.126348569188913,-26.6257928150276,-5.49040846857147,12.889484306936,47.002895317464,-32.7515752112319,-32.1405496001732,11.1300146864276
7.498265476955,-7.80045573888764,-38.5265740164681,-0.212316582527756,-26.4183487816079,-5.16189027370323,12.8853813036847,45.8812033438128,-32.3092458450448,-32.5438935140851,11.7311983038451
7.50153283758782,-7.54442768328976,-38.1808816594709,-0.292577161234146,-26.2017774390533,-4.8295618857881,12.8735513765839,44.7228758273663,-31.955948954384,-32.8158459295218,12.21732725142
7.47705842167894,-7.27335537692547,-37.8355789837181,-0.367187920926584,-25.9767683754327,-4.49496352932904,12.8534979022578,43.530297402211,-31.6866130674027,-32.9600233351242,12.5902283356705
7.42614465694155,-6.98893117347403,-37.4918336217289,-0.436286130309988,-25.7440426407306,-4.15964001311087,12.8248444094814,42.3062194052803,-31.4953585432924,-32.9824484545298,12.8541327717546
7.35037051295564,-6.69293342582579,-37.1508070557838,-0.500083101325033,-25.5043484634896,-3.82512111104994,12.7873487989928,41.053719945687,-31.3756694631656,-32.8911644978119,13.0153070835537
7.25155574928391,-6.38720180489419,-36.8136460036763,-0.558857907299513,-25.2584570096639,-3.49290179614132,12.7409095839467,39.7761580834963,-31.3205611165159,-32.6958337007703,13.0816614660518
7.13172037057279,-6.0736132283432,-36.4814738795993,-0.612950577897395,-25.007157975453,-3.16442276809672,12.6855634876544,38.4771248345736,-31.3227405029612,-32.4073399913531,13.0623565574915
6.99303997875301,-5.75405875302182,-36.15538248844,-0.662754897675599,-24.7512548422701,-2.84105175247381,12.6214743716856,37.1603933898914,-31.3747575836629,-32.0374105240195,12.9674247882984
6.83779784349684,-5.43042175521483,-35.8364241108639,-0.708710910094932,-24.4915596778687,-2.52406606309052,12.5489141004398,35.8298705170213,-31.4691452336678,-31.5982665544625,12.807418397281
6.66833465697388,-5.10455768518332,-35.5256041199793,-0.751297202958269,-24.2288874342711,-2.2146369102977,12.4682365311267,34.4895506421723,-31.5985460544751,-31.1023106681031,12.5930927898547
6.48699709852487,-4.77827563585823,-35.2238742402104,-0.791023030476788,-23.9640497602763,-1.91381590623465,12.3798463142017,33.1434736323592,-31.7558244778829,-30.5618545594708,12.3351310040172
6.29608650610752,-4.45332191076841,-34.9321265214476,-0.8284203160155,-23.6978484071375,-1.62252416251518,12.2841645664614,31.7956868422963,-31.9341629648764,-29.9888892235481,12.0439125068201
6.09780912523241,-4.13136571583502,-34.6511880630065,-0.864035578399109,-23.4310683556524,-1.34154429406877,12.1815937105977,30.4502115852346,-32.1271415770085,-29.3948974567296,11.7293272767963
5.89422956561101,-3.81398703689106,-34.3818164873332,-0.898421831327456,-23.1644708273883,-1.0715155373746,12.0724838453701,29.111013849714,-32.3288007415083,-28.7907069263232,11.400634109812
5.68722921483767,-3.50266670295844,-34.1246961361893,-0.932130516900378,-22.8987863609024,-0.812932068348925,11.9571029167487,27.7819788278314,-32.5336875954556,-28.1863807578056,11.0663603481505
5.4784714027951,-3.19877857766855,-33.8804349435098,-0.965703547147123,-22.6347081377337,-0.56614447371169,11.8356127117702,26.46688865297,-32.7368868242866,-27.5911416327397,10.7342388290721
5.26937504112592,-2.90358377075433,-33.649561927976,-0.999665538294153,-22.3728857360767,-0.331364200705545,11.7080523155613,25.1694026666187,-32.9340373569695,-27.0133247958383,10.4111768267195
5.06109824247903,-2.61822671951201,-33.4325252428004,-1.03451632722776,-22.1139194759165,-0.108670694202329,11.5743301919042,23.8930395358189,-33.1213366087393,-26.4603551168576,10.1032511499844
4.8545330301709,-2.34373295527746,-33.229690720068,-1.07072385497682,-21.8583555022027,0.101979164473325,11.4342255108293,22.6411606083228,-33.2955341560572,-25.9387433955772,9.81572336247762
4.65031167971467,-2.08100834041498,-33.0413408526722,-1.10871748869562,-21.6066817369051,0.300739771304545,11.2873987964761,21.4169540027295,-33.4539167917429,-25.4540973733609,9.55306928180739
4.4488245207934,-1.83083953732893,-32.867674167086,-1.14888183654699,-21.3593248196262,0.487864160165128,11.1334114421594,20.223419068257,-33.5942868596847,-25.0111433581031,9.31901743933101
4.25024823756099,-1.59389545572188,-32.7088049518226,-1.1915510952327,-21.1166481493654,0.663690514782403,10.971753164584,19.0633509997385,-33.7149356322515,-24.6137549249078,9.11659195805076
4.05458293004731,-1.37072942191132,-32.5647633172426,-1.23700396211947,-20.8789511329052,0.82862831795682,10.8018760649969,17.9393255485546,-33.8146132944183,-24.2649857777591,8.94815623495977
3.86169554461531,-1.1617818270619,-32.4354955730307,-1.28545914570244,-20.6464697322063,0.983144579101918,10.6232336460159,16.8536839223124,-33.8924968623604,-23.9671045088029,8.8154547937036
3.67136684085419,-0.967383039376063,-32.32086492312,-1.33707152118595,-20.4193783792545,1.12775051621887,10.4353229086951,15.8085181069409,-33.9481571152156,-23.7216296356967,8.71965162458181
3.48333889795118,-0.787756406439704,-32.2206524968076,-1.39192900126747,-20.1977932903582,1.26298899247372,10.237727531012,14.805656964546,-33.9815253762577,-23.5293639102946,8.66136420527673
3.29736029161032,-0.623021225953051,-32.1345587593232,-1.4500502205046,-19.9817771641947,1.38942293107871,10.0301601061518,13.8466535497487,-33.9928607577427,-23.3904274689836,8.64069317595449
3.11322646143354,-0.473195623885538,-32.0622053709977,-1.51138315652262,-19.7713451898084,1.50762486318098,9.81250148499235,12.9327741408854,-33.9827182884549,-23.3042899349539,8.6572483092887
2.93081336919682,-0.3381993444017,-32.0031375844766,-1.57580482471659,-19.566472222374,1.61816770380593,9.5848354011287,12.0649894997629,-33.9519181702216,-23.2698020676227,8.71017194332848
2.75010323185597,-0.217856518707301,-31.9568272780521,-1.64312218019209,-19.3671009101688,1.72161679757129,9.34747674103124,11.243968858079,-33.9015162496776,-23.2852279530009,8.79816140877402
2.57120181071014,-0.111898532785793,-31.9226767178856,-1.71307434099764,-19.1731504868001,1.81852322613076,9.10099205152737,10.4700770853232,-33.8327756411031,-23.3482790173396,8.9194921791753
2.39434737718778,-0.0199671513195356,-31.9000231244466,-1.78533621341155,-18.9845258896499,1.90941832371577,8.84621115682833,9.74337542496379,-33.7471393035045,-23.4561513176003,9.07204352033194
2.21991200819873,0.0583819259729215,-31.8881440929842,-1.85952355785002,-18.8011268336479,1.99480930819874,8.58422909308728,9.06362609239712,-33.6462032729671,-23.6055676083305,9.25332832829783
2.04839626802137,0.123674899288511,-31.88626388803,-1.93519948657801,-18.6228564580119,2.07517590478072,8.31639795521127,8.43030090862587,-33.5316901874393,-23.7928255835179,9.46052861930569
1.88041860905404,0.176514936067851,-31.8935606000733,-2.01188233306027,-18.4496291710837,2.15096781961451,8.04430867069991,7.84259400092107,-33.4054227182141,-24.0138534223301,9.69053775859566
1.71670098396779,0.21757634410224,-31.909174120033,-2.08905477644408,-18.2813773451103,2.22260291412367,7.7697631454843,7.29943844328032,-33.2692965461147,-24.2642733234278,9.94000999437382
1.55805222408924,0.24759776811236,-31.932214854831,-2.16617404207505,-18.1180565586903,2.29046593830061,7.49473764613974,6.79952654590015,-33.1252526014345,-24.5394730990207,10.2054172273563
1.40535071174168,0.267374379896199,-31.9617730748504,-2.24268293229658,-17.9596491479971,2.35490769911064,7.2213386724738,6.34133334754403,-32.9752484316244,-24.8346851403317,10.4831122419043
1.25952773930575,0.277749087622084,-31.9969287507751,-2.31802137923977,-17.8061659080096,2.41624456280756,6.95175291508172,5.92314273356277,-32.8212287634207,-25.145071230008,10.76939691211
1.12155262753341,0.279602843685215,-32.0367617051055,-2.39163816479144,-17.6576458824506,2.47475821502022,6.68819316775581,5.54307551073586,-32.6650955691774,-25.4658108802782,11.0605932520371
0.992419975058553,0.273844179916649,-32.0803618768024,-2.46300243179114,-17.5141542934121,2.53069563091047,6.43284226387805,5.19911872684467,-32.5086782068341,-25.7921902424753,11.3531146912259
0.873137917853643,0.261398142258515,-32.1268394799326,-2.53161461666446,-17.375778778703,2.58426924135257,6.18779721865638,4.88915552661725,-32.3537044488122,-26.1196882619716,11.6435347056617
0.764713240380422,0.243194832766045,-32.1753348304138,-2.5970164621483,-17.2426242114158,2.63565731944515,5.95501577003622,4.61099487723296,-32.2017734095142,-26.4440567007191,11.9286499697145
0.668123539444899,0.220157793509933,-32.2250276185172,-2.65879981233645,-17.1148064573248,2.68500464883661,5.73626740596996,4.3624005640639,-32.0543314848234,-26.7613909230069,12.2055355105905
0.584257865515341,0.193192483814157,-32.2751454171366,-2.71661394555817,-16.992445471615,2.73242356058948,5.53309074126923,4.14111893933455,-31.9126523999354,-27.0681888853083,12.471589883757
0.513798500568999,0.163175109316292,-32.3249712353437,-2.77017126037171,-16.8756581442392,2.77799542929391,5.34675877521505,3.94490499325011,-31.777822312636,-27.3613964970074,12.7245690607839
0.457021001733472,0.130942059771655,-32.3738499529021,-2.81925119390531,-16.7645512776634,2.82177270021789,5.17825314561232,3.77154640226419,-31.6507306498855,-27.6384383340384,12.9626084509319
0.413532504839587,0.097280204360939,-32.4211935048881,-2.86370231785634,-16.6592150320646,2.8637814833473,5.02824802899077,3.61888528934837,-31.5320670005207,-27.8972335188385,13.1842331955585
0.382057620850175,0.0629182796264134,-32.4664847267903,-2.90344262333519,-16.5597171124469,2.90402470603279,4.89710385697112,3.48483750578215,-31.4223239951976,-28.1361973620995,13.388357511529
