Finger Velocity,Scap_X,Scap_Y,Scap_Z,Shoulder horiz abd-adduction,Shoulder flexion-extension,Shoulder internal-external rotation,elbow flexion-extension,forearm pronation-supination,wrist flexion-extension,wrist radial-ulnar deviation
1.37574756305604,-12.8888329287059,-20.099552573232,21.8741497830848,-28.1829070033168,-23.2358676858455,-19.4782236132344,57.6065901943615,-39.1418434496117,-28.9562951710187,-0.0465694099299722
1.65256961131221,-12.9146253382843,-20.0987160619049,21.9012541992942,-28.18289719888,-23.1865067396185,-19.370881253467,57.5437067675518,-39.119160556818,-29.1764962011613,-0.0452123599220236
1.94506532152888,-12.9451368256765,-20.0949314321139,21.9270791369683,-28.1779299527237,-23.1387515122242,-19.2544592949319,57.47064601027,-39.0718763095036,-29.4347984483199,-0.0186835917976531
2.25063291006654,-12.9803501171108,-20.088064226343,21.9513393135543,-28.167353080907,-23.0926470223391,-19.12899099873,57.3865184195642,-38.995083453448,-29.7334168102777,0.0366555612592971
2.56654144544408,-13.0201678822349,-20.0780094674058,21.9737640663528,-28.1505247068793,-23.0481613826001,-18.994552103794,57.2904616474391,-38.8837274862122,-30.0742157993067,0.124377641236284
2.88990618962368,-13.0644102538678,-20.0646910493705,21.9941010750647,-28.1268212701297,-23.0051852575686,-18.8512547805701,57.181654713907,-38.732684761914,-30.4586679060886,0.247948125201734
3.21769452607136,-13.1128138250455,-20.0480604077119,22.0121199665542,-28.0956453945809,-22.9635331395262,-18.6992415088026,57.0593320305121,-38.5368470799036,-30.8878186515494,0.410684621407566
3.54674914283778,-13.1650320950963,-20.0280945801917,22.0276158588357,-28.0564335813297,-22.9229463047926,-18.5386793487645,56.9227968960361,-38.2912117645747,-31.3622579801233,0.61571440257323
3.87382183578954,-13.2206372917671,-20.0047937886165,22.0404128842063,-28.0086637008101,-22.8830972851045,-18.3697550782296,56.7714341439459,-37.99097635339,-31.8820973086244,0.865928179882643
4.19561420568578,-13.2791234631284,-19.9781786875314,22.0503676996251,-27.951862257405,-22.8435956643244,-18.1926716363755,56.6047216413175,-37.6316371123851,-32.4469513119627,1.16392795041197
4.50882285673717,-13.3399107129602,-19.9482874388667,22.0573729530125,-27.8856113882326,-22.803994987529,-18.0076462543157,56.4222403596497,-37.2090906453677,-33.0559234144707,1.51196693022352
4.81018734562641,-13.4023504448103,-19.9151727812282,22.0613606312728,-27.8095555401814,-22.7638005498512,-17.8149105592838,56.2236827550038,-36.7197378036533,-33.7075939610664,1.91188004111748
5.09653945499349,-13.4657314793453,-19.8788992657194,22.062305173695,-27.723407749126,-22.7224778213697,-17.6147128166485,56.0088592007105,-36.1605888852385,-34.4000101646137,2.36500418450531
5.36485254466387,-13.5292869157827,-19.83954081846,22.0602261988937,-27.6269554276169,-22.6794612692225,-17.407322331078,55.777702203264,-35.52936869557,-35.1306771839376,2.87208863861519
5.61228984891151,-13.5922016216937,-19.7971787564485,22.0551906703366,-27.5200655550054,-22.6341633642681,-17.1930358804578,55.5302680994741,-34.8246194154016,-35.896550114856,3.43319735065356
5.83625067939991,-13.653620254275,-19.751900331804,22.0473143181234,-27.4026891562072,-22.5859836035177,-16.9721859134928,55.2667358890815,-34.0457984128821,-36.6940273015441,4.04760660618839
6.0344135818741,-13.7126557360528,-19.7037978215479,22.0367621432413,-27.274864950732,-22.5343174306645,-16.7451501069721,54.9874028226963,-33.1933672163878,-37.5189462048251,4.71370343455555
6.20477559069902,-13.768398127461,-19.6529681266738,22.0237478516162,-27.1367220509476,-22.4785649862692,-16.5123617528739,54.6926763698603,-32.2688669400961,-38.3665840733645,5.4288920010293
6.34568683385762,-13.8199238591583,-19.5995128005792,22.0085320931969,-26.9884815856883,-22.4181396624466,-16.2743203336289,54.3830622660917,-31.2749746696117,-39.2316667731554,6.18951694783605
6.45587986362066,-13.8663053065811,-19.5435383945232,21.9914194135119,-26.8304571226972,-22.3524764709986,-16.0316015553918,54.0591485029485,-30.215534841173,-40.1083901770918,6.99081392199828
6.53449322422584,-13.9066207009679,-19.4851569876117,21.9727538651307,-26.6630537676912,-22.2810402525689,-15.7848660557111,53.7215853928025,-29.0955596675871,-40.9904592447667,7.82689805571908
6.58108891546496,-13.9399643677825,-19.424486762694,21.9529132785724,-26.4867658376337,-22.2033337514086,-15.534865992423,53.3710622074655,-27.921193343146,-41.8711500121353,8.69080059801267
6.59566356671917,-13.9654572645764,-19.3616524978819,21.9323022540841,-26.3021730435701,-22.11890555652,-15.2824487584648,53.0082813321311,-26.6996362077206,-42.7433988535326,9.57456191756772
6.57865329512965,-13.9822577614889,-19.2967858634961,21.9113439989007,-26.1099351684017,-22.0273578735235,-15.0285571533785,52.6339313395457,-25.4390272738485,-43.5999214034858,10.4693855375032
6.53093237827955,-13.9895725743862,-19.2300254423352,21.890471191887,-25.9107852776429,-21.9283540514633,-14.7742254781359,52.2486607945627,-24.1482863913897,-44.4333605094517,11.3658528368124
6.45380601822406,-13.9866677255379,-19.1615164251216,21.8701161070696,-25.7055215476927,-21.821625749787,-14.5205712072045,51.8530548556821,-22.8369205741547,-45.2364588848313,12.2541920305785
6.34899759961877,-13.9728793708956,-19.0914099717945,21.8507002703287,-25.4949978312294,-21.7069795953319,-14.2687821273896,51.4476167676395,-21.5148022614581,-46.0022483187726,13.1245888092638
6.21863093602724,-13.9476242988762,-19.0198622705931,21.8326239588093,-25.2801131033031,-21.5843031499729,-14.0200991041374,51.0327560911436,-20.1919300945612,-46.7242440501525,13.9675205389214
6.0652080357937,-13.9104098773832,-18.947033364808,21.8162558767676,-25.0617999491583,-21.4535699902706,-13.7757949183903,50.6087849963171,-18.8781847247711,-47.3966308659775,14.774092134491
5.89158287509147,-13.860843208613,-18.8730858429979,21.8019233493435,-24.8410122706422,-21.3148436955493,-13.537149878912,50.1759232127776,-17.5830929026751,-48.0144271140158,15.5363503312298
5.70093150379982,-13.7986392469161,-18.7981834957416,21.7899033633946,-24.6187124055477,-21.1682805540966,-13.3054251267244,49.734311384395,-16.3156124648229,-48.573614330463,16.2475544355889
5.49671848091893,-13.7236276413672,-18.7224900312316,21.7804147521452,-24.3958578756128,-21.0141308291412,-13.0818346919837,49.2840317509507,-15.0839488924889,-49.0712234335704,16.9023856103048
5.28265908138485,-13.635758079357,-18.6461679205598,21.7736117717977,-24.1733880047442,-20.8527384734262,-12.8675174353696,48.8251344035861,-13.8954111412913,-49.5053729191292,17.4970827359111
5.06267587633958,-13.535103931237,-18.569377420677,21.7695792597749,-23.9522106770606,-20.6845392367058,-12.6635100109825,48.3576669364478,-12.7563108669539,-49.8752594378212,18.0294999232072
4.84084713255862,-13.4218640304201,-18.4922758057186,21.7683295031333,-23.7331895307365,-20.5100571660571,-12.4707219332568,47.8817051869573,-11.671905505627,-50.1811056938031,18.4990877294218
4.62134305853415,-13.296362467707,-18.4150168277011,21.7698008874229,-23.5171319045705,-20.3298995488604,-12.2899137233104,47.3973829017246,-10.6463823756896,-50.4240740940449,18.90680609824
4.40834448889338,-13.1590463307187,-18.3377504217888,21.7738583431688,-23.3047778651284,-20.1447503920761,-12.1216789579863,46.9049185158824,-9.68287840892851,-50.6061566030675,19.2549813613203
4.20593772237403,-13.010481377189,-18.26062266344,21.7802955592458,-23.0967906372799,-19.9553625705678,-11.966430857609,46.4046377013642,-8.78352849853856,-50.73005172683,19.5471220289002
4.01797994348923,-12.8513456926783,-18.1837759713205,21.7888388894311,-22.8937487350053,-19.7625488114067,-11.8243938397787,45.8969908403417,-7.94953480688815,-50.7990386464502,19.7877086200787
3.84793338283765,-12.6824214454195,-18.1073495312108,21.7991528410734,-22.6961400423269,-19.5671717078384,-11.6956002526145,45.3825650496045,-7.18124958402139,-50.8168566401685,19.9819717712869
3.69867436825021,-12.504584907,-18.0314798957116,21.8108470046422,-22.5043580314564,-19.3701329730231,-11.5798922968423,44.862090778802,-6.47826487966601,-50.7875955491302,20.1356707967721
3.5722955716037,-12.3187949505659,-17.9563016978565,21.8234842612611,-22.3187002340249,-19.1723621488045,-11.476928961672,44.3364433072113,-5.83950373772732,-50.715600589579,20.2548822575367
3.46993302901203,-12.1260802657396,-17.8819484073244,21.8365900921202,-22.1393690066247,-18.9748049817661,-11.3861976387116,43.806639661448,-5.26330882962751,-50.6053926032825,20.3458053585035
3.39165750936166,-11.9275255448122,-17.8085530543324,21.8496628071668,-21.9664745567605,-18.7784116733339,-11.3070299425787,43.2738315763459,-4.74752584295822,-50.4616030630566,20.4145884711632
3.33646527359722,-11.72425690372,-17.7362488455117,21.8621845075889,-21.8000401229473,-18.5841252051284,-11.2386211563832,42.7392951437714,-4.28958016588242,-50.2889219047275,20.4671789871725
3.30238345759056,-11.5174268086905,-17.665169598691,21.8736325929132,-21.6400091362173,-18.3928699328687,-11.1800526331904,42.2044177676723,-3.88654641017059,-50.0920555482287,20.5091971418286
3.28667624169752,-11.3081987884424,-17.5954499326853,21.8834916143822,-21.486254130267,-18.2055406294167,-11.1303164181809,41.6706829938132,-3.53521105824429,-49.8756922362192,20.5458333923067
3.28611239747679,-11.0977322229831,-17.5272251656095,21.8912652589649,-21.3385871128465,-18.0229921405004,-11.0883413087355,41.1396537266564,-3.23212900530256,-49.6444719524768,20.5817683068616
3.29724403366414,-10.8871675104002,-17.4606308993834,21.8964882237684,-21.1967710623607,-17.8460297972167,-11.0530195415385,40.6129542930172,-2.97367502915073,-49.4029585691849,20.6211135989296
3.31665289610071,-10.6776119173458,-17.395802295565,21.8987377130369,-21.060532174377,-17.6754007093905,-11.0232332899936,40.0922517661642,-2.75609130429196,-49.15561240928,20.6673728103571
3.34113798105735,-10.4701264109305,-17.3328730754834,21.8976442665309,-20.9295724581204,-17.511786043836,-10.9978801774164,39.5792369243538,-2.57553202941709,-48.9067620059426,20.723420121259
3.36783708533612,-10.265713743233,-17.2719743042828,21.8929016164175,-20.803582278295,-17.3557943698975,-10.9758970678476,39.0756051801852,-2.42810609640408,-48.6605744219716,20.7914957800472
3.39428868733602,-10.0653080125314,-17.2132330408623,21.8842752728985,-20.6822524536282,-17.2079561307361,-10.9562814877933,38.5830377752888,-2.30991852382478,-48.4210240201764,20.8732166675255
3.41844737787344,-9.86976586329875,-17.156770947602,21.8716095541759,-20.5652855549016,-17.0687192766921,-10.9381101508366,38.1031834831231,-2.21711113451886,-48.1918600486013,20.9696004988137
3.4386673262365,-9.67985942007058,-17.1027029515938,21.8548328016711,-20.4524060836713,-16.9384460806672,-10.920554192868,37.6376409997891,-2.14590269619633,-47.9765738198771,21.0811020891362
3.45366638320317,-9.49627098761283,-17.0511360366299,21.8339605582569,-20.3433692524703,-16.8174111427115,-10.9028908753468,37.1879421337761,-2.0926284772564,-47.7783665978898,21.2076599495482
3.46248040276809,-9.31958949721529,-17.0021682277789,21.8090965385938,-20.2379681268003,-16.7058005775819,-10.8845116763326,36.7555358392836,-2.05377890156285,-47.600119514717,21.3487512726682
3.46441440453129,-9.15030863777333,-16.9558878085056,21.7804312872335,-20.1360389317934,-16.6037123648792,-10.8649268517072,36.3417730827946,-2.02603672776126,-47.4443668941066,21.5034531897737
3.45899480656467,-8.98882657834515,-16.9123727826212,21.7482384993557,-20.0374643764781,-16.511157829266,-10.8437666887711,35.947892495488,-2.00631195600265,-47.3132742465958,21.6705080895497
3.44592522839148,-8.83544716357898,-16.8716905622414,21.7128690650284,-19.9421749079194,-16.4280642087106,-10.8207797734682,35.575006749259,-1.99177350599574,-47.2086219322671,21.8483908008006
3.42504720342362,-8.69038244336811,-16.8338978350124,21.6747429833984,-19.850147874367,-16.3542782580739,-10.795828649224,35.2240896028867,-1.97987663554131,-47.1317950933588,22.035375541473
3.39630640595332,-8.55375638178875,-16.7990405462678,21.6343393722496,-19.7614046479662,-16.2895708200586,-10.7688832679927,34.8959635957591,-1.96838508925857,-47.0837800223379,22.2296007106937
3.35972455619978,-8.4256095765227,-16.7671539272227,21.5921848687464,-19.6760058321822,-16.2336422772667,-10.7400126311402,34.5912884169108,-1.95538708749635,-47.0651667493512,22.4291298461774
3.31537691525556,-8.30590480844458,-16.7382625061823,21.5488407801037,-19.5940447573005,-16.1861287832782,-10.7093749964624,34.3105500439168,-1.93930447916898,-47.0761573592988,22.6320073774193
3.26337514866849,-8.19453323237243,-16.7123800521647,21.5048893980594,-19.5156395484195,-16.1466091607025,-10.6772069932718,34.0540508246464,-1.9188946663286,-47.1165793763671,22.836308147838
3.20385527652567,-8.09132101528927,-16.6895094171599,21.4609199327456,-19.4409241285678,-16.1146123499376,-10.6438119417065,33.8219007565855,-1.89324522788575,-47.1859034512713,23.0401800213921
3.13697041084697,-7.9960362300663,-16.6696422633992,21.4175145422223,-19.3700385844623,-16.0896252913794,-10.6095476164609,33.6140102912945,-1.86176149363755,-47.2832645478435,23.2418792106703
3.06288799131363,-7.90839582309478,-16.6527586839621,21.3752349300094,-19.3031193633724,-16.0711011212486,-10.5748136362041,33.4300850429248,-1.82414762611019,-47.4074858861935,23.4397982620805
2.98179125891754,-7.82807249346173,-16.6388267455704,21.3346099564272,-19.2402897812489,-16.0584675528693,-10.5400386110844,33.269622800682,-1.78038203832458,-47.5571050818293,23.6324869087688
2.89388474988654,-7.75470134835516,-16.6278019966503,21.2961246644557,-19.1816513053952,-16.0511353027261,-10.5056671545938,33.1319132334776,-1.73068819009527,-47.7304021731763,23.8186662404044
2.79940364819721,-7.68788623367311,-16.6196269885386,21.260211058518,-19.127276032076,-16.0485064104633,-10.4721468680587,33.0160406349377,-1.67550194617401,-47.9254294525543,23.9972368221678
2.69862690521084,-7.62720567952393,-16.614230854795,21.2272408935739,-19.0772007122342,-16.0499822997008,-10.4399154313516,32.9208899961105,-1.61543673903215,-48.1400431299208,24.1672815117036
2.59189412186223,-7.57221844485221,-16.6115289876355,21.1975206331055,-19.0314225894651,-16.0549714335525,-10.4093879705777,32.8451566190321,-1.55124776238759,-48.3719368486438,24.3280637757042
2.47962629490336,-7.52246868932689,-16.611422845279,21.171288624603,-18.9898972095002,-16.0628964334833,-10.3809449110279,32.7873594019113,-1.48379634199714,-48.6186769713063,24.4790223128098
2.36235065378644,-7.47749083845463,-16.6137999211433,21.1487144304783,-18.9525382485834,-16.0732005499627,-10.3549205546407,32.7458578386308,-1.4140155043943,-48.8777394088458,24.6197627610901
2.24072994942918,-7.43681423444792,-16.6185339055421,21.1299001520101,-18.9192192985117,-16.085353394702,-10.3315926438772,32.7188726819772,-1.34287760849462,-49.1465476102792,24.7500472094874
2.11559666665932,-7.39996767706484,-16.6254850718303,21.1148835023435,-18.8897774464313,-16.0988558633509,-10.3111731882619,32.7045101213269,-1.27136473296959,-49.4225111721882,24.8697821485187
1.98799262823521,-7.36648395394005,-16.6345009186971,21.1036423252408,-18.8640184040979,-16.1132441931589,-10.2938008335039,32.7007892233116,-1.20044233563939,-49.703064369871,24.9790054126357
1.85921412621527,-7.33590443951611,-16.6454170943158,21.0961002207254,-18.8417228800496,-16.1280931148966,-10.279535043015,32.7056722833277,-1.13103653180073,-49.9857037656221,25.0778726171373
1.73086159088738,-7.30778380927685,-16.6580586150535,21.0921329298445,-18.8226538520857,-16.1430180748511,-10.268352338157,32.7170976440579,-1.06401518671124,-50.2680239340171,25.1666435770736
1.60488995526269,-7.28169487824146,-16.6722413751624,21.0915751486757,-18.806564384841,-16.1576765200569,-10.2601448073849,32.7330144622048,-1.00017288763782,-50.5477502930808,25.2456691722353
1.48364962224124,-7.25723353668366,-16.6877739290261,21.094227478423,-18.7932056431953,-16.1717682565755,-10.2547210406813,32.751418851982,-0.940219750413565,-50.8227680841781,25.3153790361483
1.36989587042614,-7.23402372710232,-16.7044595149276,21.0998632613307,-18.7823347713281,-16.1850349084362,-10.2518095681151,32.770390804028,-0.884773917606615,-51.0911467175128,25.3762702745928
1.26672484651416,-7.21172238760667,-16.7220982767012,21.1082350927765,-18.773722334439,-16.1972585263906,-10.2510647826596,32.7881312666362,-0.834357512410828,-51.3511589599806,25.4288971908525
1.17737107279817,-7.19002427857305,-16.7404896260328,21.1190808378447,-18.7671590521302,-16.2082594193991,-10.252075219843,32.8029987775505,-0.789395720259419,-51.6012947220952,25.4738617747497
1.10479559937657,-7.16866660978715,-16.7594346748857,21.132129018997,-18.7624615885721,-16.2178933041781,-10.2543739626309,32.8135450480222,-0.750218584321522,-51.8402694435286,25.5118045607334
1.0510500845102,-7.14743339107946,-16.7787386560877,21.1471034812095,-18.7594772059308,-16.2260478887906,-10.2574508436476,32.8185489273765,-0.717065035120064,-52.0670272577813,25.5433954141907
1.01655382169076,-7.12615943654994,-16.798213242297,21.1637272807442,-18.7580871347174,-16.2326390262333,-10.2607660278054,32.8170482135771,-0.690088641606252,-52.2807392407959,25.5693238773751
0.999594531248113,-7.10473395592714,-16.8176786727814,21.1817257817039,-18.7582085665035,-16.2376065897318,-10.2637644791687,32.8083688155674,-0.669364573894104,-52.4807971318961,25.5902888830018
0.996355516513071,-7.08310366284344,-16.8369656066647,21.2008289779851,-18.7597952276928,-16.240910225451,-10.2658907561366,32.7921508071922,-0.654897296643446,-52.6668029668639,25.6069878858684
1.00148860384094,-7.06127531942705,-16.8559166394555,21.220773083948,-18.7628365434458,-16.242525125931,-10.2666035516849,32.768370934217,-0.646628551516201,-52.838555083314,25.6201057167011
1.00893863789429,-7.03931762393001,-16.8743874421938,21.2413014551129,-18.7673554449035,-16.2424379410592,-10.2653894098456,32.737361145197,-0.644445227402137,-52.996030959797,25.6303036679993
1.01268109660623,-7.01736233798848,-16.8922475047738,21.262164914566,-18.7734049089956,-16.240642910096,-10.2617751070942,32.699822718187,-0.648186758027354,-53.139367364026,25.638209429165
1.007226254048,-6.99560454611341,-16.9093804831936,21.283121574654,-18.7810633484899,-16.2371382662364,-10.2553382812022,32.656835554845,-0.65765173123071,-53.2688383387605,25.6444084838089
0.987943706332475,-6.9743019444227,-16.9256841613567,21.3039362557177,-18.7904289913168,-16.2319229392797,-10.2457160104833,32.609862217602,-0.672603440875705,-53.3848316365665,25.6494374940387
0.951366936196902,-6.95377306881686,-16.9410700408929,21.3243796110437,-18.8016134034709,-16.2249935630553,-10.2326111822533,32.5607463013558,-0.692774157198439,-53.4878242898994,25.6537800644481
0.89570941140146,-6.93439439271788,-16.9554625710944,21.3442270688083,-18.8147343202296,-16.2163417816831,-10.2157966264722,32.5117047675578,-0.717867938648068,-53.5783580410072,25.6578651247574
0.821993913389,-6.91659624833125,-16.9687980307053,21.3632576985229,-18.8299079579138,-16.2059518427778,-10.1951171112434,32.4653139342,-0.747561871788915,-53.6570153501013,25.6620680023481
0.736652031411469,-6.90085755129506,-16.9810230770384,21.38125310262,-18.8472409846623,-16.1937984658624,-10.1704893850809,32.4244889141771,-0.781505718399566,-53.7243966558881,25.6667140815861
0.657189275833737,-6.88769933479835,-16.9920929872768,21.3979964241629,-18.866822334775,-16.1798449771375,-10.1419004981468,32.3924564257432,-0.819320072726463,-53.7810994871997,25.6720847761498
0.620490196110884,-6.8776771238618,-17.0019696322491,21.4132715498915,-18.8887150578562,-16.1640417034624,-10.1094046416807,32.3727210585031,-0.860593279183582,-53.8276999245747,25.6784253839895
0.676765189234802,-6.87137220366792,-17.0106192413393,21.4268625746149,-18.9129484012974,-16.1463246192672,-10.0731187201381,32.3690252615081,-0.904877518870641,-53.8647367930707,25.6859542611854
