Finger Velocity,Scap_X,Scap_Y,Scap_Z,Shoulder horiz abd-adduction,Shoulder flexion-extension,Shoulder internal-external rotation,elbow flexion-extension,forearm pronation-supination,wrist flexion-extension,wrist radial-ulnar deviation
1.27983182070583,-16.1911291994723,-6.0597005148091,22.529800663806,-41.3586338328218,-28.2161555469532,-31.9046222654364,58.6404989888072,-60.8154096348024,-12.8827645783205,-12.7260948097386
1.86455235010833,-16.2565228804597,-6.09220054641006,22.510606900388,-41.3451825259278,-28.1134757466027,-31.746236945459,58.5273511793232,-59.5452081175454,-13.3700230452223,-12.3179639439614
2.57945963785475,-16.3238578346362,-6.12172573581283,22.4870412811903,-41.3374628757096,-28.0013849304231,-31.5982728623102,58.45188164812,-58.114308507649,-13.8600763110997,-11.8899932425811
3.39774318530242,-16.3928153592422,-6.14736888340795,22.4589184675431,-41.3348874624039,-27.8794689618354,-31.4626085293487,58.4211802280614,-56.5214299355442,-14.3485466385621,-11.4452254841674
4.30708542399861,-16.4630649090485,-6.16819054658275,22.4260722140747,-41.3365661108179,-27.7473187138627,-31.3407691821955,58.442674747753,-54.7674784695402,-14.8309442816034,-10.9875181019225
5.2998092009474,-16.5342665668459,-6.1832290855562,22.3883522982245,-41.341300094854,-27.6045339409993,-31.2338527496452,58.5241211843496,-52.8557842870078,-15.3026065670506,-10.5216517848285
6.36955730711892,-16.6060726596779,-6.1915110153948,22.3456207940579,-41.3475857814651,-27.4507282264585,-31.142465279527,58.673566665837,-50.7922755760873,-15.7586330222458,-10.0534079199181
7.51006494418639,-16.6781284531032,-6.19206149883672,22.2977478247268,-41.3536280787197,-27.2855348314375,-31.0666687984496,58.8992685890283,-48.5855589391373,-16.1938379574458,-9.58959170189385
8.71467031598568,-16.7500719393073,-6.18391482903569,22.244606930567,-41.3573635996979,-27.1086131484858,-31.0059441590658,59.2095544194133,-46.2468812140502,-16.6027452597448,-9.13797649290826
9.97612243691075,-16.8215328197213,-6.16612476201606,22.1860701934542,-41.3564929934216,-26.919655354752,-30.9591708530343,59.6126118047834,-43.7899584752387,-16.9796491697299,-8.70714810444369
11.2865254430805,-16.8921308596087,-6.13777456666291,22.1220032627945,-41.3485214594815,-26.7183927850224,-30.924625074099,60.1162075740942,-41.2306732529887,-17.3187578115845,-8.30623656614407
12.637353938936,-16.9614738540077,-6.097986665,22.0522604345722,-41.3308060867684,-26.504601514647,-30.8999965451722,60.7273460079969,-38.5866577440465,-17.6144227064158,-7.94453797682647
14.0195096977351,-17.0291554867049,-6.04593173671265,21.9766799415279,-41.3006083654685,-26.2781066706966,-30.8824238207269,61.4518892883997,-35.8767949906378,-17.8614389298814,-7.63104855217372
15.4234046693005,-17.0947533836729,-5.980837161779,21.895079616665,-41.2551500327053,-26.0387850745543,-30.8685469883926,62.2941733447597,-33.1206780754716,-18.0553809201101,-7.37395302308568
16.8390616601811,-17.1578276589818,-5.90199467845418,21.8072530906503,-41.1916703337245,-25.7865659457716,-30.8545759721943,63.2566576232904,-30.338067606472,-18.1929239053836,-7.18012451312136
18.2562270222867,-17.2179202264201,-5.8087671440872,21.712966676221,-41.1074828122,-25.5214295462326,-30.8363720328197,64.3396459499619,-27.5483811048831,-18.2720961148043,-7.05469758367621
19.6644911334429,-17.2745551075939,-5.70059430346634,21.6119570811774,-41.0000298778433,-25.2434037992302,-30.8095396050938,65.5411077817713,-24.7702374987175,-18.2924154712376,-7.0007675096622
21.0534132015978,-17.3272399109483,-5.57699749235188,21.5039300766339,-40.8669336223375,-24.9525590666151,-30.7695253315154,66.8566166818828,-22.0210695465939,-18.2548852006664,-7.01924845210241
22.4126473500495,-17.3754685890925,-5.43758323291907,21.3885602289174,-40.7060416434441,-24.6490013962602,-30.7117210482571,68.2794088291005,-19.3168094255053,-18.1618502951434,-7.10889646507625
23.7320672246759,-17.4187255070725,-5.28204571457292,21.2654917821644,-40.5154669645772,-24.3328646519963,-30.6315675451199,69.8005517922524,-16.6716486968257,-18.0167432433135,-7.2664776273042
25.0018865956137,-17.4564907759273,-5.11016819712145,21.1343407544889,-40.2936214760442,-24.0043020046176,-30.5246561318995,71.4092047416455,-14.097872442615,-17.8237657323856,-7.48704349962269
26.2127736504448,-17.4882467292921,-4.92182341844348,20.9946982833553,-40.0392426502136,-23.6634772956051,-30.3868253733326,73.0929464657497,-11.6057667906901,-17.5875591671624,-7.76426883821496
27.3559569158808,-17.5134853522181,-4.71697312820626,20.8461352242942,-39.7514135728305,-23.3105567887987,-30.2142507692898,74.8381465641414,-9.20359787386986,-17.3129110388847,-8.0908094685689
28.423321009581,-17.5317164172112,-4.49566689646469,20.6882079686339,-39.4295765648345,-22.9457018075312,-30.0035256145551,76.6303568801978,-6.8976579512109,-17.0045299298109,-8.45864808246792
29.4074907150559,-17.5424760476874,-4.25804035799338,20.5204653990345,-39.0735408283652,-22.5690627238339,-29.7517317298248,78.4547033837787,-4.69237130358064,-16.6669042419419,-8.85940813958834
30.3019021879342,-17.5453354160473,-4.00431305119806,20.3424568513633,-38.6834846327198,-22.180774722924,-29.4564991756885,80.2962623373982,-2.59044942158352,-16.3042431743728,-9.28462739125385
31.1008604355958,-17.5399092930636,-3.73478599901288,20.1537409093316,-38.2599525658953,-21.7809557025302,-29.1160544192982,82.140408097418,-0.593082728274629,-15.9204860897758,-9.72599067512845
31.7995825567674,-17.5258641955167,-3.44983916300905,19.9538948340329,-37.803848328596,-21.3697065746392,-28.7292567057084,83.9731230857852,1.2998449177314,-15.5193594422001,-10.1755260051791
32.3942265744137,-17.5029259234556,-3.1499288822692,19.7425244242299,-37.3164234623897,-20.9471141177902,-28.2956225878434,85.7812633093715,3.08953235539186,-15.1044586031262,-10.6257691716689
32.8819060347659,-17.4708863261264,-2.83558538258368,19.5192741072575,-36.7992623087294,-20.5132563918965,-27.815338692687,87.5527753722648,4.77803987652253,-14.6793339545468,-11.06990117086
33.2606908680843,-17.4296091765201,-2.507410406349,19.2838370667053,-36.2542634141604,-20.068210587319,-27.2892628565778,89.2768632666752,6.36808044774497,-14.2475649249789,-11.5018609433961
33.5295953034755,-17.3790350655027,-2.16607497093715,19.0359652190702,-35.6836175434641,-19.6120630417869,-26.7189137720903,90.9441053265385,7.86283078961681,-13.8128108842235,-11.9164340199159
33.6885538921437,-17.319185251817,-1.81231721897073,18.7754788617685,-35.0897824419141,-19.1449210246233,-26.1064492894228,92.5465235380463,9.26576727677758,-13.3788330702685,-12.3093163442583
33.7383869132358,-17.2501644307899,-1.44694028305129,18.5022758361045,-34.4754544989016,-18.6669257651468,-25.4546335469715,94.0776088887003,10.5805294604537,-12.9494863736866,-12.6771520457359
33.6807566076595,-17.1721624164,-1.07081005230308,18.2163400791824,-33.8435375014206,-18.1782661089972,-24.7667931970053,95.532307585514,11.8108122202446,-12.5286834496135,-13.0175442410495
33.5181158032811,-17.085454766022,-0.684852699735813,17.9177494635355,-33.1971087174487,-17.6791921418408,-24.0467631520102,96.9069737621273,12.9602861035482,-12.120336132089,-13.329038831409
33.2536505569854,-16.9904024049395,-0.290051810266107,17.6066828281737,-32.5393826079096,-17.1700281308048,-23.2988225054785,98.1992946958172,14.032544223038,-11.7282805905009,-13.611082432834
32.8912184445412,-16.8874503160223,0.112555057152394,17.2834260921271,-31.873672530273,-16.6511841881194,-22.52762157919,99.4081945703154,15.0310730874271,-11.3561932885261,-13.8639567992049
32.4352840795482,-16.7771253434399,0.521880530604748,16.9483773267436,-31.2033508711235,-16.1231661366166,-21.7381014099111,100.533722505729,15.9592439274164,-11.0075047557152,-14.0886931919321
31.890853341648,-16.6600331263201,0.936792441828413,16.6020506570624,-30.5318081325857,-15.58658313352,-20.9354073775142,101.576930033502,16.8203204794344,-10.6853175901971,-14.2869709812395
31.2634076474555,-16.5368541444496,1.35611979321459,16.2450788631782,-29.8624115961975,-15.0421526796942,-20.124799035663,102.539742536691,17.6174788405881,-10.3923341088911,-14.4610052447611
30.5588394129838,-16.4083388337832,1.77865972592693,15.8782145492704,-29.1984642891658,-14.4907027132738,-19.3115584791632,103.424828501725,18.3538349169612,-10.1307977920252,-14.613428245376
29.7833896429571,-16.2753017168141,2.20318549636812,15.5023297343946,-28.5431650670391,-13.9331705767262,-18.5008997360188,104.235469797912,19.0324751312483,-9.90245125540585,-14.7471694676704
28.9435883506986,-16.1386144916561,2.62845543166307,15.1184137005204,-27.899570685033,-13.3705987676496,-17.6978816984302,104.975435638249,19.6564864028811,-9.70851203651609,-14.8653384369118
28.046198273225,-15.9991980349761,3.05322280657713,14.7275689234564,-27.270560741186,-12.8041275301056,-16.9073270080711,105.648862379295,20.2289819384561,-9.54966610415089,-14.9711139083926
27.0981621107299,-15.8580132984266,3.47624655981104,14.3310049225317,-26.6588063294759,-12.2349844937693,-16.1337490908418,106.260140881296,20.7531200468496,-9.42607778388831,-15.06764227339
26.1065532980829,-15.7160511146639,3.89630274119311,13.9300298978295,-26.06674314078,-11.6644717014772,-15.3812892001162,106.81381276153,21.2321139855925,-9.33741383364443,-15.1579472452658
25.0785301173135,-15.5743209730302,4.31219655011657,13.5260400762972,-25.4965496041274,-11.0939504689886,-14.6536648898953,107.314476522481,21.6692317032913,-9.28287882510758,-15.2448521290372
24.0212927913248,-15.4338388701901,4.72277478884044,13.1205067564781,-24.9501304848073,-10.5248245874616,-13.9541308309894,107.766704212416,22.0677852076991,-9.26125883292279,-15.3309153119388
22.9420430649399,-15.2956143836194,5.12693851335407,12.7149611229274,-24.4291061617726,-9.95852240837731,-13.2854523487188,108.174968973946,22.4311100955652,-9.27097061092324,-15.4183790898929
21.8479456815753,-15.1606371570043,5.52365562537979,12.3109769910212,-23.9348076012214,-9.39647834841247,-12.6498915455526,108.543583554798,22.7625364660297,-9.31011379309849,-15.5091315659579
20.7460911010823,-15.0298630285264,5.91197312008052,11.9101517335273,-23.4682768344008,-8.84011432567716,-12.0492054108419,108.876649598327,23.0653529575369,-9.3765240931908,-15.6046810935621
19.643458772203,-14.9042000741744,6.29102868950438,11.5140857255891,-23.0302725516211,-8.29082159039844,-11.4846549328184,109.178017307151,23.3427659802073,-9.46782592964302,-15.7061425571619
18.5468802644874,-14.7844948744409,6.66006138076807,11.1243607229561,-22.6212802601313,-7.74994334059995,-10.9570239309083,109.451254886387,23.5978563674369,-9.5814832995837,-15.8142346497243
17.4630015701411,-14.6715193421847,7.01842101987986,10.7425176594413,-22.2415263312746,-7.21875842234439,-10.4666461317083,109.699627020058,23.8335356613702,-9.71484800947863,-15.9292871862502
16.3982438961381,-14.5659584725007,7.36557613980991,10.3700344093621,-21.8909951814789,-6.69846632192775,-10.0134389178261,109.92608151058,24.0525041018744,-9.86520456142699,-16.0512573740032
15.3587622727018,-14.4683993883737,7.7011201952979,10.0083040982446,-21.5694487879116,-6.19017358204016,-9.59694216353076,110.133243119661,24.2572121375372,-10.0298111602523,-16.1797538539037
14.3504013031876,-14.3793220491977,8.02477589946292,9.65861454893371,-21.2764477318837,-5.69488172079046,-9.21636060854555,110.323413597711,24.4498269540743,-10.205936483053,-16.3140672433375
13.3786473815629,-14.2990919573025,8.33639757028059,9.32212941751161,-21.0113729918649,-5.21347669626328,-8.87060829840523,110.49857688213,24.6322051573979,-10.3908920338383,-16.4532058506595
12.4485767371022,-14.227955145201,8.63597142774938,8.9998715122771,-20.7734477716956,-4.74671993502857,-8.55835373389914,110.660408478341,24.8058723908572,-10.5820600767329,-16.5959352031729
11.5647987946195,-14.1660356609032,8.92361383704736,8.69270871278504,-20.5617587447291,-4.29524092901349,-8.27806451587325,110.810288103916,24.9720103345714,-10.7769172875365,-16.7408200438267
10.7313946713316,-14.1133356933027,9.19956754656149,8.40134282377789,-20.3752762158859,-3.85953139951349,-8.02805043095741,110.949314769658,25.131451241966,-10.9730543723322,-16.8862675066816
9.95185132964646,-14.0697383965766,9.46419601927724,8.12630161240322,-20.2128728411855,-3.4399410290788,-7.80650408914383,111.078323585747,25.2846799197699,-11.168191970103,-17.030570265341
9.22899316938488,-14.035013386117,9.71797600228005,7.86793418734543,-20.0733406847061,-3.0366747717669,-7.6115383985659,111.197903707291,25.4318428550505,-11.3601931853685,-17.171948550883
8.56491485601573,-14.0088247907359,9.96148852172127,7.62640979090416,-19.9554065240639,-2.64979176735646,-7.44122035376946,111.308416961856,25.5727640329117,-11.547073085239,-17.3085900522694
7.96092198199358,-13.9907416569375,10.1954085256355,7.40171999235371,-19.8577454287544,-2.27920590212124,-7.29360081623737,111.410016824501,25.7069668602543,-11.727005444701,-17.4386868446928
7.41748943795831,-13.980250415277,10.420493420721,7.1936841881091,-19.7789927251187,-1.92468807508107,-7.16674015857464,111.502667517191,25.83370150299,-11.8983269445686,-17.5604686449075
6.93425025290384,-13.9767690435076,10.6375707599555,7.00195822826132,-19.7177545263147,-1.58587023815155,-7.05872980544418,111.586163103425,25.9519768533079,-12.0595389308343,-17.6722318681192
6.51002862591211,-13.9796625009134,10.8475253356901,6.82604590596143,-19.6726170496509,-1.26225127202304,-6.9677098297306,111.660146523295,26.0605962743832,-12.2093067430265,-17.772364148635
6.14292806438298,-13.9882589653319,11.051285920367,6.66531297393942,-19.6421549692227,-0.953204733366287,-6.89188285897311,111.724128570997,26.1581962237076,-12.3464565254659,-17.8593641717446
5.83047764500219,-14.0018663830224,11.2498118798053,6.51900329398391,-19.6249390553312,-0.657988467850169,-6.82952462041868,111.777506855936,26.2432868288627,-12.4699693651164,-17.9318568408373
5.56982682718285,-14.0197888463977,11.4440798671531,6.38625668048798,-19.6195433308892,-0.375756033934618,-6.7789914973035,111.81958480665,26.3142934808973,-12.5789725691308,-17.9886039738566
5.35796488189324,-14.0413423459951,11.6350707920751,6.26612796982383,-19.6245519343884,-0.105569829486246,-6.73872547454262,111.849590773115,26.3695985274311,-12.6727279176485,-18.0285108857241
5.19192976725318,-14.0658694944719,11.8237572513428,6.15760683777208,-19.6385658306707,0.153584239414655,-6.70725682450929,111.866697261227,26.4075821941579,-12.750616813463,-18.0506293590767
5.06896815849221,-14.0927528817609,12.011091603022,6.05963790118232,-19.6602094659161,0.402780761271319,-6.68320484614165,111.870040297163,26.4266619361419,-12.8121224039469,-18.0541576254945
4.9866159124593,-14.1214267842084,12.1979948621694,5.97114067267146,-19.688137428663,0.643137763917526,-6.66527693962696,111.858738873925,26.4253295153426,-12.856808960039,-18.0384380694888
4.94268526677998,-14.1513870148061,12.3853465854438,5.89102897316894,-19.7210411553224,0.875798927120314,-6.65226626917975,111.831914386103,26.4021852146655,-12.8842990282577,-18.0029534233471
4.93516677151864,-14.1821987676017,12.5739758925122,5.81822943256224,-19.7576557002446,1.10191542989327,-6.64304823125265,111.788709919228,26.3559687185674,-12.8942490812015,-17.9473222335269
4.96207377098565,-14.2135023759331,12.7646537447371,5.75169872559967,-19.7967665658775,1.32262781396399,-6.63657591657255,111.72830922704,26.2855862942182,-12.8863245507359,-17.8712943410381
5.02126914962567,-14.2450169669806,12.9580865702496,5.69043921630719,-19.8372165522576,1.53904823391991,-6.63187474915987,111.649955199736,26.1901339825973,-12.8601752307029,-17.7747470287819
5.11031464306511,-14.2765420502824,13.1549112932959,5.63351273723079,-19.8779125428252,1.75224344003393,-6.62803650836687,111.552967598332,26.0689165611255,-12.8154120873592,-17.6576823533782
5.22637290327177,-14.307957125133,13.3556917957423,5.58005231166447,-19.9178321059954,1.96321881451315,-6.62421298196928,111.436759809653,25.9214620808074,-12.7515865192734,-17.5202260052628
5.3661760661187,-14.3392194339616,13.5609168070899,5.52927172175697,-19.956029765453,2.17290376249413,-6.61960954442354,111.300854368997,25.7475318172943,-12.6681730712938,-17.3626278407957
5.52605791015477,-14.3703600276209,13.7709991831245,5.48047291170686,-19.9916427771467,2.38213874505424,-6.61347899008845,111.144897006242,25.5471255043589,-12.5645565445886,-17.1852640222518
5.70203485880424,-14.4014783424017,13.9862764926319,5.43305127943502,-20.0238962450807,2.59166422713964,-6.60511596786683,110.968668994413,25.3204817350006,-12.4400243714417,-16.9886405070001
5.88991614001729,-14.4327355148085,14.2070127906634,5.38649894916582,-20.0521074092561,2.80211178973023,-6.59385235670165,110.772097615888,25.0680734203447,-12.2937650451032,-16.7733974631857
6.08542446194358,-14.4643466791105,14.433401422213,5.34040613530047,-20.0756889464512,3.01399761322424,-6.57905388476924,110.555264612437,24.7905982007912,-12.1248733034946,-16.5403140654892
6.28431306754943,-14.4965725088783,14.6655686783773,5.29446071162203,-20.0941511363173,3.22771847155658,-6.56011822384759,110.3184125535,24.4889637262002,-11.932362637957,-16.2903130434837
6.48247044573481,-14.5297102807149,14.9035781209579,5.24844609609206,-20.1071027596487,3.44355028548581,-6.53647468669347,110.061949138775,24.1642677803932,-11.715185507989,-16.0244643145418
6.67600863450212,-14.5640847522954,15.1474353970155,5.20223755649694,-20.1142506124311,3.66164917999457,-6.50758553099228,109.786449534979,23.8177733299605,-11.4722613774783,-15.7439870291309
6.86133429427617,-14.6000391470838,15.3970933732778,5.15579704163945,-20.1153975403275,3.88205489150317,-6.47294874478215,109.492656919292,23.4508787261736,-11.2025123499941,-15.4502493833987
7.03520359334388,-14.6379265171884,15.6524574259419,5.1091666511735,-20.1104389263087,4.10469629038377,-6.4321020731648,109.181481454125,23.0650834700526,-10.9049057788691,-15.1447656055295
7.19476278134351,-14.678101716185,15.9133907263979,5.06246087683126,-20.0993576022814,4.32939873236121,-6.38462796199516,108.853997944877,22.6619501506476,-10.578502779229,-14.8291895936927
7.33757652392148,-14.7209141634255,16.1797193727875,5.01585777772342,-20.0822172073308,4.5558929333434,-6.33015905092882,108.511442432498,22.243063372545,-10.2225111068149,-14.5053047759446
7.46164594415365,-14.7667015270747,16.4512372324826,4.9695892878697,-20.059154080809,4.78382507439722,-6.26838384167963,108.155207946839,21.8099866831534,-9.83634043260463,-14.1750098809436
7.5654180667983,-14.8157843993461,16.727710379191,4.92393088745056,-20.0303678511879,5.01276787704349,-6.19905218401386,107.786839597553,21.3642186679587,-9.41965766727282,-13.8403004534846
7.64778810060657,-14.868461987747,17.0088810280777,4.87919089230825,-19.9961109505609,5.24223242944782,-6.12198024976861,107.408029112968,20.9071494759821,-8.972439711955,-13.5032461187645
7.70809576979312,-14.9250088035325,17.294470892967,4.83569962387025,-19.9566773401714,5.47168057864243,-6.03705469842551,107.020608864023,20.4400190529753,-8.49502088608855,-13.1659637967177
7.74611672947491,-14.9856722950055,17.5841839132505,4.79379871412975,-19.9123907680235,5.70053772386583,-5.94423577412932,106.626545342715,19.9638783014697,-7.98813236530269,-12.8305872967758
7.76204996343498,-15.0506713488267,17.8777083258605,4.75383078178084,-19.8635928948788,5.92820584880661,-5.8435591113838,106.227932014035,19.4795542771502,-7.45293126782623,-12.499233975464
7.75650194944981,-15.120195564221,18.1747180877328,4.71612969109885,-19.8106316262478,6.15407662106621,-5.73513606346242,105.826981437644,18.9876203961824,-6.8910175194466,-12.1739693878248
7.73046826806012,-15.1944051891939,18.4748736826192,4.68101157880877,-19.7538499838435,6.37754437400248,-5.61915240394806,105.426016567953,18.4883724834423,-6.30443724651177,-11.8567710741844
