Finger Velocity,Scap_X,Scap_Y,Scap_Z,Shoulder horiz abd-adduction,Shoulder flexion-extension,Shoulder internal-external rotation,elbow flexion-extension,forearm pronation-supination,wrist flexion-extension,wrist radial-ulnar deviation
1.17655259461311,-8.51093118845301,-39.0512762848171,4.61111653449274,-27.7456048595522,-11.022149603871,5.62259071732875,58.2575186605701,-60.634570038153,-12.1698696024032,-7.80543284907226
1.46616405328761,-8.55912194313012,-38.9863869442855,4.64612308479744,-27.7687744665084,-11.0220641158646,5.71631521632097,58.134984174434,-60.155924095885,-12.2920542181717,-7.77539619460106
1.77262299460489,-8.61014037689563,-38.9188300301105,4.68205881069433,-27.7948912288787,-11.0188415563644,5.82155993652651,57.996412964518,-59.5863976011588,-12.4359528800923,-7.72532663523329
2.09355042224938,-8.66384560397336,-38.8487039040406,4.71848123360131,-27.8237549506665,-11.0121772968076,5.93823871314454,57.8412860183674,-58.9213700702712,-12.6035155773757,-7.65295045297567
2.42628985350216,-8.72007587988012,-38.7760768052296,4.75491228268212,-27.8550962500098,-11.0017879664313,6.06611732634274,57.6691955087387,-58.1569467258114,-12.7967562738363,-7.55602800625755
2.76792720383409,-8.7786490363318,-38.7009825326354,4.79084520632707,-27.8885785583752,-10.9874131296103,6.20481566664854,57.4798622259286,-57.2900798051185,-13.0177276077745,-7.43239675341473
3.11532217180658,-8.83936233998994,-38.6234178234682,4.82575237103648,-27.9238020325273,-10.9688158652711,6.35381312927575,57.2731567135246,-56.3187012922874,-13.2684797390805,-7.28002477107731
3.46514737758483,-8.90199175695392,-38.5433414881351,4.85909382634292,-27.960309315217,-10.9457823436782,6.51245687115528,57.049123709809,-55.2418658585536,-13.5510006475226,-7.09707638046442
3.81393333714103,-8.96629067133516,-38.4606752634513,4.89032648957696,-27.9975930024218,-10.9181205617221,6.67997246440798,56.808008653949,-54.0599002183109,-13.8671361743163,-6.88199101507597
4.15811795885164,-9.03198817040916,-38.3753062637001,4.9189137721123,-28.0351045995298,-10.8856584461307,6.85547643403973,56.5502840159192,-52.7745520252155,-14.2184896040134,-6.63357557237118
4.49409944360787,-9.09878706916744,-38.2870908431355,4.94433542959683,-28.0722646811969,-10.8482415646839,7.03799017040545,56.2766721575057,-51.3891281441352,-14.6063025972957,-6.35110909113563
4.81829151845001,-9.16636190060944,-38.1958596332478,4.96609737745528,-28.1084739154587,-10.8057306991673,7.22645474762865,55.9881605026821,-49.9086091047095,-15.0313217477919,-6.03445667109552
5.12717993440396,-9.23435713937004,-38.1014234829779,4.98374117834906,-28.1431245759024,-10.757999532558,7.41974624379022,55.6860042247544,-48.3397243780478,-15.4936577949726,-5.68418716363282
5.41737915134588,-9.3023859484779,-38.00358000914,4.99685289038216,-28.1756121490041,-10.7049326885938,7.61669123099814,55.3717117123674,-46.6909724911042,-15.9926472974089,-5.30168645089675
5.6856881340326,-9.37002973672544,-37.9021204571648,5.00507097141621,-28.2053466484365,-10.646424334579,7.81608216960504,55.0470089964129,-44.9725714998717,-16.5267289619966,-4.8892554017664
5.92914420227118,-9.43683878489266,-37.7968365801592,5.00809296809074,-28.2317632721358,-10.5823775182403,8.01669249659942,54.7137812297286,-43.1963293215679,-17.0933483585511,-4.45017938998727
6.14507391849506,-9.50233414300106,-37.6875272699348,5.00568077438227,-28.2543320768809,-10.5127043577937,8.21729124745395,54.3739921282907,-41.3754297819003,-17.6889048843235,-3.98875531182256
6.33114005929772,-9.56601091978603,-37.5740047187584,4.99766431694322,-28.2725663962949,-10.4373271427835,8.41665709666249,54.0295856567497,-39.524138333797,-18.3087530661892,-3.51026311926465
6.48538380376398,-9.62734298496581,-37.4560999524465,4.9839436049364,-28.2860297907489,-10.3561803344737,8.61359174392083,53.6823775731678,-37.6574401144641,-18.9472663160142,-3.02087255536413
6.60626137963465,-9.68578899509968,-37.3336676465024,4.96448916157447,-28.2943413902074,-10.2692133838229,8.8069326085183,53.3339470042693,-35.7906308947134,-19.5979652539606,-2.52748207243952
6.69267453641242,-9.74079954923322,-37.206590207706,4.93934092456517,-28.2971795696279,-10.176394219019,8.99556482249869,52.9855393340322,-33.9388871373595,-20.2537054199337,-2.03749510067668
6.74399435956253,-9.79182519566551,-37.0747811652144,4.90860575750092,-28.2942839746151,-10.0777131998557,9.17843253115328,52.6379909663333,-32.1168438063732,-20.9069118350032,-1.55854746521591
6.76007809815992,-9.83832495694697,-36.9381879606961,4.87245375139486,-28.285455985331,-9.97318729918942,9.35454951504653,52.2916840070334,-30.3382073792434,-21.5498418998172,-1.09820700792126
6.74127884478624,-9.87977502118512,-36.7967942505727,4.83111351447671,-28.2705577637863,-9.86286425736115,9.52300914017409,51.9465350840091,-28.6154270398421,-22.1748547890663,-0.663670703607498
6.68844807487192,-9.91567726144705,-36.6506218323334,4.78486665031962,-28.2495100714986,-9.74682646487701,9.68299362222777,51.6020181724104,-26.9594401745739,-22.7746655248901,-0.261484792287162
6.60293121468505,-9.94556728419739,-36.4997322839449,4.73404161301455,-28.2222890706838,-9.62519435734374,9.83378255719157,51.257217279806,-25.3795002845494,-23.3425652229164,0.102690325642439
6.48655655145807,-9.96902176308306,-36.3442283692109,4.67900710902766,-28.1889223329246,-9.49812914604889,9.97476062306041,50.9109018750094,-23.8830875092744,-23.8725947846848,0.424255514318377
6.34161790980765,-9.98566487642079,-36.1842552230176,4.62016519462412,-28.1494842776263,-9.36583474847177,10.1054242976222,50.5616163968153,-22.4758951737595,-24.3596662336372,0.699782026397566
6.17085157282567,-9.99517372680136,-36.0200012957596,4.55794419970684,-28.1040912535606,-9.22855882073977,10.225387371911,50.2077750691315,-21.1618808162775,-24.7996325241574,0.927055734653163
5.97740789103611,-9.99728267341369,-35.8516990081606,4.49279159489816,-28.052896462583,-9.08659283064261,10.3343849820465,49.8477542937233,-19.943367326233,-25.1893118511072,1.10506424730273
5.76481785075493,-9.99178654982267,-35.6796250468471,4.4251669076074,-27.9960849032671,-8.94027114926031,10.4322758495937,49.4799766503294,-18.8211790470752,-25.526475642351,1.23393861855118
5.53695450043156,-9.97854277255735,-35.5041002189378,4.35553478309165,-27.9338684821316,-8.7899691813495,10.5190424225973,49.1029825552358,-17.7947986222978,-25.8098104846291,1.31486276335849
5.29798847635993,-9.95747237058784,-35.3254887821386,4.28435827780197,-27.8664814028247,-8.63610059516413,10.5947886484798,48.7154875549924,-16.8625324707924,-26.038863594484,1.34996295369133
5.05233583665682,-9.92855998403321,-35.1441971756235,4.21209246614758,-27.7941759027989,-8.47911374672929,10.659735183616,48.3164248377555,-16.0216755251331,-26.2139796853391,1.34218760392675
4.80459493950844,-9.8918528932871,-34.9606720950911,4.13917843991922,-27.7172183681735,-8.31948741822172,10.7142119484776,47.9049737334652,-15.2686687674414,-26.3362347869916,1.29518470122044
4.55946723021739,-9.84745914861168,-34.7753978798801,4.06603778134526,-27.6358858264452,-8.15772600372592,10.7586480659882,47.4805757415836,-14.5992457822782,-26.4073702352778,1.21318136361032
4.32165483520567,-9.79554487748117,-34.5888932068351,3.99306759346543,-27.550462796488,-7.99435428015104,10.7935593654441,47.0429400247091,-14.0085667761664,-26.4297280452075,1.10086758772868
4.09572659990149,-9.73633085461555,-34.4017071116991,3.92063617321223,-27.4612384654515,-7.82991190018973,10.8195337831133,46.5920404212735,-13.4913401698445,-26.4061874528903,0.963284533440413
3.88594517932234,-9.67008842781203,-34.2144143831366,3.84907941257351,-27.3685041614701,-7.66494774063048,10.8372151307691,46.1281059517167,-13.0419329295498,-26.3401016236509,0.805716745793265
3.69605320008142,-9.59713490013554,-34.02761039581,3.77869800990739,-27.2725510978376,-7.50001423490023,10.8472858239069,45.6516065993178,-12.6544713205774,-26.2352332873524,0.63358746132677
3.52902838938063,-9.51782847553487,-33.8419054639845,3.70975556356497,-27.173668374895,-7.3356618155254,10.8504492520435,45.163235896537,-12.3229338452318,-26.0956882408195,0.452356429539932
3.38683567240449,-9.43256288148011,-33.657918802866,3.64247760033278,-27.0721412366314,-7.17243359130196,10.8474125248167,44.6638915770067,-12.0412378936891,-25.925846124996,0.267420300453269
3.27022337368146,-9.34176178881779,-33.4762721826216,3.57705156142161,-26.9682495888557,-7.01086038277913,10.8388703330696,44.1546552844891,-11.803321209605,-25.7302884993021,0.0840163748488992
3.17862006737057,-9.24587315378789,-33.2975833558192,3.51362773171288,-26.8622667942629,-6.85145623338776,10.8254906221062,43.6367720756253,-11.6032187558016,-25.5137248434001,-0.0928688015610145
3.11017700618193,-9.14536360713588,-33.1224593398408,3.4523210584812,-26.7544587636227,-6.69471449904524,10.8079026868069,43.1116302194431,-11.4351350443232,-25.2809176149352,-0.258584028204541
3.06196638329217,-9.04071300830097,-32.9514896455032,3.39321376805298,-26.6450833580989,-6.54110459563812,10.7866881687249,42.5807415880109,-11.293511533324,-25.0366078564695,-0.408889023532866
3.03030124961179,-8.93240926869381,-32.7852395606725,3.33635865510164,-26.5343901057283,-6.39106945168195,10.7623752687968,42.0457227556688,-11.1730883328998,-24.7854430820667,-0.540018828031876
3.01111065369343,-8.8209435286532,-32.6242436185287,3.28178289114482,-26.4226202203527,-6.24502367353622,10.7354362963212,41.5082767860145,-11.0689592294462,-24.5319092758539,-0.648735175906378
3.00029821879169,-8.70680574951883,-32.4689993990913,3.22949217884647,-26.3100068992453,-6.10335238489924,10.7062884716897,40.9701755898974,-10.9766189457593,-24.2802687838177,-0.732363464688862
2.99403165692392,-8.5904807574472,-32.3199618247762,3.17947506944048,-26.1967758685973,-5.96641065501584,10.6752977036749,40.4332426819221,-10.892001597394,-24.034505671753,-0.788814567671244
2.98894025206328,-8.47244475268332,-32.1775381110667,3.13170726229216,-26.0831461421454,-5.8345233882228,10.6427848853518,39.8993361419499,-10.81150946585,-23.7982797763402,-0.816591405247928
2.98222275543265,-8.35316228085986,-32.0420835175207,3.08615571618815,-25.9693309527847,-5.70798552074854,10.6090341087043,39.3703315970319,-10.7320314610317,-23.5748902391253,-0.814780854976489
2.97168269865946,-8.23308365301397,-31.9138980114751,3.04278241876613,-25.8555388052233,-5.58706236647834,10.5743020995813,38.848105074465,-10.6509509629519,-23.3672488528902,-0.783032177173748
2.95571245646992,-8.11264279664533,-31.793223910932,3.00154768219757,-25.7419745799571,-5.47198997118692,10.5388281299877,38.334515632834,-10.5661430877544,-23.1778631312879,-0.721523611876587
2.93324537219415,-7.99225551791642,-31.6802445214793,2.96241285992333,-25.6288406024365,-5.36297536643907,10.5028436729725,37.8313877454671,-10.4759617885952,-23.0088286657453,-0.63091913793271
2.90369070128418,-7.87231815181841,-31.5750837329208,2.92534241140921,-25.5163375851644,-5.26019665031497,10.4665811187544,37.3404934789211,-10.3792175554496,-22.8618300525938,-0.51231757984235
2.8668614239218,-7.75320657071875,-31.4778065021529,2.89030527927149,-25.4046653585341,-5.16380285518411,10.4302809588256,36.8635345711952,-10.2751467980768,-22.7381494445224,-0.367196316572859
2.82290117418954,-7.63527551217318,-31.3884201248557,2.85727558344472,-25.2940233259709,-5.07391358882897,10.3941969596015,36.4021245689559,-10.1633742580027,-22.6386816008788,-0.19735179340437
2.77221384601745,-7.51885817666268,-31.3068761902793,2.82623267542069,-25.1846106039278,-4.99061845441751,10.3585989855324,35.9577712313765,-10.0438699782435,-22.5639541886581,-0.00483886520635738
2.71539771012117,-7.40426603852216,-31.2330731166374,2.7971606262191,-25.076625831012,-4.91397627131543,10.3237732914361,35.5318594506828,-9.91690246038325,-22.5141520363289,0.208089270075472
2.65318485851557,-7.29178881110045,-31.166859173323,2.77004724148411,-24.9702666503363,-4.84401413626173,10.2900202776394,35.1256349723572,-9.78298966669855,-22.4891440804902,0.43903910672463
2.58638625457896,-7.18169451029526,-31.1080359055458,2.74488270678176,-24.8657288860997,-4.78072638276176,10.2576498748878,34.7401892138364,-9.64284948788209,-22.4885118643048,0.685531706944074
2.51584243616829,-7.07422956765118,-31.0563618846274,2.72165796900766,-24.7632054501482,-4.72407351315408,10.2269748827039,34.3764454752173,-9.49735119912432,-22.5115786179986,0.945053563358518
2.44237988091795,-6.96961895330361,-31.0115567124558,2.70036295911819,-24.6628850258852,-4.67398119066335,10.1983027120711,34.0351468126479,-9.34746927871366,-22.5574381452015,1.21510282442283
2.36677311946274,-6.868066278756,-30.9733052117224,2.68098475882249,-24.5649505854307,-4.63033938672134,10.1719260729734,33.7168458131102,-9.19424077760988,-22.6249829360479,1.49323045089138
2.28971281913767,-6.76975385934004,-30.9412617354491,2.6635058087164,-24.4695778023168,-4.59300178134294,10.1481131957071,33.4218964745153,-9.03872721440188,-22.7129311172715,1.77707603906554
2.211780212777,-6.67484272650059,-30.9150545318649,2.64790224626104,-24.3769334248889,-4.56178551118546,10.127098181696,33.1504483593075,-8.88198173075549,-22.8198520198269,2.06439820015111
2.13342837258524,-6.58347259091131,-30.8942901062518,2.63414244968413,-24.2871736719692,-4.53647135099205,10.1090720465075,32.9024431540204,-8.72502198069242,-22.94419028703,2.35309952531791
2.05497088795202,-6.49576176836854,-30.8785575311474,2.62218585066526,-24.2004427029539,-4.51680439944735,10.0941749494217,32.677613734897,-8.56880894805023,-23.0842885587272,2.64124628420812
1.97657846594079,-6.41180709053976,-30.8674326695205,2.61198206566898,-24.116871204334,-4.50249532108914,10.0824900095247,32.47548581517,-8.41423159948636,-23.2384088536349,2.92708309286802
1.8982838171344,-6.33168383135894,-30.8604822902809,2.60347038189224,-24.0365751280212,-4.49322217403194,10.0740390009561,32.295382234921,-8.26209700282537,-23.404752839185,3.20904284707768
1.81999492524502,-6.25544568700422,-30.8572680695088,2.59657961770389,-23.9596546147147,-4.48863283131265,10.0687801118944,32.1364299487808,-8.11312529784666,-23.5814812274945,3.48575225633156
1.74151646336034,-6.18312485272002,-30.8573504819137,2.59122835952629,-23.8861931369028,-4.48834798324103,10.066607849934,31.9975697662222,-7.96794872314899,-23.7667325585129,3.75603333751975
1.66257877649776,-6.11473224234649,-30.860292593813,2.58732555950642,-23.8162568996209,-4.49196468953514,10.0673550821684,31.8775688965979,-7.82711379338236,-23.9586416211653,4.0189012389754
1.5828735788905,-6.05025789519013,-30.8656637708869,2.58477146407781,-23.7498945408658,-4.49906043294179,10.070797111618,31.7750363389253,-7.69108569195992,-24.1553577341594,4.2735587693131
1.50209539549491,-5.98967161000099,-30.8730433110308,2.58345883430089,-23.6871371752248,-4.50919761028098,10.0766576142142,31.6884411319165,-7.56025399419242,-24.355063072404,4.51938800256213
1.41998787745488,-5.93292383948807,-30.8820240048821,2.58327441330134,-23.6279988218721,-4.5219283822855,10.0846161948816,31.6161334443522,-7.4349389526278,-24.5559911646675,4.75593931874436
1.33639448574529,-5.87994687361579,-30.8922156149675,2.58410059124742,-23.5724772507425,-4.53679979028926,10.0943172692769,31.5563684410911,-7.31539773730645,-24.7564455836626,4.98291822231359
1.25131368599701,-5.83065633678888,-30.9032482504749,2.58581721249644,-23.5205552688106,-4.55335903748489,10.1053799400129,31.5073328064249,-7.20183020268805,-24.954818727206,5.20017027972917
1.16495971478815,-5.78495302173646,-30.914775599889,2.58830346323945,-23.4722024533746,-4.57115882877872,10.1174085112155,31.4671737471491,-7.09438392849359,-25.1496104969739,5.40766455095692
1.07783105606448,-5.74272507913078,-30.9264779695887,2.59143977277856,-23.4273773229343,-4.58976266888956,10.1300032696517,31.4340302384138,-6.99315843890819,-25.339446629252,5.60547595125048
0.990789614286586,-5.70385057444742,-30.9380650649179,2.59510965932685,-23.3860299204097,-4.60875003188315,10.1427711524235,31.4060662198584,-6.89820863551632,-25.5230963859881,5.7937670350796
0.905152971941391,-5.66820041078559,-30.9492784438001,2.59920145287376,-23.3481047689812,-4.62772133175041,10.1553359234586,31.381505395312,-6.80954757915142,-25.6994892439953,5.97276970942872
0.822796735366154,-5.6356415982997,-30.9598935742586,2.60360983247336,-23.3135441473497,-4.64630263692167,10.1673475004254,31.3586672305944,-6.72714881803505,-25.8677301279112,6.14276735049457
0.746245930782704,-5.60604082932522,-30.9697214375518,2.6082371221738,-23.2822916173857,-4.66415007717678,10.1784901140473,31.3360036780012,-6.65094847665322,-26.0271126442944,6.30407773134692
0.678689608154436,-5.57926829593711,-30.9786096370058,2.61299429935078,-23.2542957222833,-4.68095388736124,10.1884890397146,31.3121360868114,-6.58084728903229,-26.1771297147198,6.45703708901475
0.623771976406985,-5.55520166582399,-30.9864429956825,2.61780168346576,-23.2295137587151,-4.69644201994436,10.1971157085932,31.2858916943562,-6.51671268846367,-26.3174809864059,6.60198558185604
0.584946806081646,-5.53373011450496,-30.9931436491945,2.62258929247871,-23.2079155139686,-4.71038324255824,10.204191074985,31.2563390378807,-6.45838097113433,-26.4480764256697,6.73925431686144
0.564324056899991,-5.51475829848301,-30.9986706587505,2.62729687482341,-23.18948684912,-4.72258962463973,10.2095871856789,31.2228215858467,-6.4056594575138,-26.5690355808629,6.8691540608998
0.561465610111631,-5.49821014628188,-31.0030191808598,2.6318736416891,-23.1742330016543,-4.73291831600186,10.2132269651566,31.1849888590506,-6.35832850282127,-26.680682140968,6.9919656918596
0.573029016583124,-5.4840323429792,-31.0062192330823,2.63627773401932,-23.1621814763139,-4.74127253252946,10.2150822966019,31.142824298443,-6.31614316547287,-26.7835335996729,7.10793240215287
0.593613829840787,-5.4721973882565,-31.008334090433,2.64047546180861,-23.15338439323,-4.74760168859082,10.2151705390708,31.0966691397733,-6.278834330292,-26.8782860298411,7.21725364143148
0.61711269943081,-5.46270611687363,-31.0094583365048,2.64444035367458,-23.1479201689665,-4.75190064769705,10.213549671341,31.0472415760342,-6.24610910026496,-26.9657941448139,7.32008077227176
0.637723144713917,-5.45558958228866,-31.0097155803621,2.648152056079,-23.145894418484,-4.75420809744845,10.2103122906767,30.9956505267522,-6.21765031765426,-27.0470469583715,7.4165144046452
0.650411548489498,-5.45091021775963,-31.0092558386528,2.65159512494195,-23.1474399819384,-4.7546040880441,10.205578721474,30.9434033883833,-6.19311515217594,-27.1231394767564,7.50660337047321
0.651060009982121,-5.4487622044657,-31.0082525752519,2.65475775631405,-23.1527159981715,-4.75320680268417,10.1994895062398,30.8924072146539,-6.17213279388976,-27.1952410033794,7.59034530126258
0.636578624054529,-5.44927099324565,-31.0068993895995,2.65763050602626,-23.1619059678035,-4.75016865036744,10.1921975585572,30.8449628737551,-6.15430139727149,-27.2645608311252,7.66768878039975
0.605229737238876,-5.45259194551676,-31.0054063501103,2.66020505048255,-23.1752147746682,-4.74567178521861,10.1838602534106,30.8037518538231,-6.13918452538668,-27.3323123227707,7.73853705124849
0.557520167817792,-5.45890807928151,-31.0039959806671,2.66247304152084,-23.192864664153,-4.73992316195,10.1746317169882,30.7718155387171,-6.12630742927521,-27.3996765942107,7.80275326095882
0.49847493930772,-5.4684269267572,-31.0028989258795,2.6644251068405,-23.2150902083275,-4.73314923624491,10.1646555607081,30.7525269496294,-6.1151535637022,-27.4677671694079,7.86016719344074
0.44300251482248,-5.48137652991319,-31.0023493428401,2.66605004314653,-23.2421323192864,-4.72559041423691,10.1540582861095,30.7495551398993,-6.10516178552099,-27.5375970325727,7.91058338116815
0.424050234946256,-5.49800061881924,-31.002580090291,2.66733424066186,-23.2742314045594,-4.71749534964964,10.1429435692099,30.766822634069,-6.09572470510552,-27.6100494442815,7.95379038296821
